# Pulseq sequence file
# Created by MATLAB mr toolbox

[VERSION]
major 1
minor 5
revision 1

[DEFINITIONS]
AdcRasterTime 1e-07 
Averages 1 
BlockDurationRaster 1e-05 
CalibrationACSSetID 4 
CalibrationAllSetsInRefscan 1 
CalibrationNSets 5 
CalibrationNacs 32 
CalibrationNcalib1 72 
CalibrationNcalib2 1 
CalibrationRefscanNLin 72 
CalibrationRefscanNPar 72 
CalibrationSlabRephaserSeparate 1 
CalibrationTE 0.0043125 
CalibrationTR 0.00894 
EncodedSlabThickness 0.18 
FOV 0.22 0.172 0.18 
FlipAngle 15 
GradientRasterTime 1e-05 
KspaceOrdering negative_to_positive 
Name gre_3d_wave_FC_FOV220x172x180_res0p88x0p8776x2p5_E1_Ry3_Rz1_os4_amp8_cyc10_TRA_skyra 
Nechoes 1 
Nx 250 
Nx_os 1000 
Ny 196 
Ny_meas 65 
Nz 72 
Nz_meas 72 
OrientationMapping TRA 
PartitionResolution 0.352 
PhaseResolution 1.0027907 
RadiofrequencyRasterTime 1e-06 
ReadoutDuration 0.005 
ReadoutOversamplingFactor 4 
ReadoutPolarity monopolar 
ReceiverGainHigh 1 
Ry 3 
Rz 1 
SliceOversampling 0.125 
SliceThickness 0.16 
TE 0.02 
TR 0.03 
TargetFOV 0.22 0.22 0.16 
TotalDuration 164.25828 
UseFlowComp 1 
UseFullInitialFC 1 
UseFullInterEchoFC 0 
WaveAmplitude_mTm 8 
WaveCosChannel z 
WaveCycles 10 
WaveSinChannel y 
WaveSlew_Tms 200 
kSpaceCenterLine 98 
kSpaceCenterPartition 36 

# Format of blocks:
# NUM DUR RF  GX  GY  GZ  ADC  EXT
[BLOCKS]
    1 120   1   0   0 810  0  0
    2 1298   0   0   0 395  0  0
    3 380   0 539 638 772  0  0
    4 525   0 808   2   1  0  0
    5 677   0 809 200 468  0  0
    6 120   2   0   0 810  0  0
    7 1298   0   0   0 395  0  0
    8 380   0 539 638 772  0  0
    9 525   0 808   2   1  0  0
   10 677   0 809 200 468  0  0
   11 120   3   0   0 810  0  0
   12 1298   0   0   0 395  0  0
   13 380   0 539 638 772  0  0
   14 525   0 808   2   1  0  0
   15 677   0 809 200 468  0  0
   16 120   4   0   0 810  0  0
   17 1298   0   0   0 395  0  0
   18 380   0 539 638 772  0  0
   19 525   0 808   2   1  0  0
   20 677   0 809 200 468  0  0
   21 120   5   0   0 810  0  0
   22 1298   0   0   0 395  0  0
   23 380   0 539 638 772  0  0
   24 525   0 808   2   1  0  0
   25 677   0 809 200 468  0  0
   26 120   6   0   0 810  0  0
   27 1298   0   0   0 395  0  0
   28 380   0 539 638 772  0  0
   29 525   0 808   2   1  0  0
   30 677   0 809 200 468  0  0
   31 120   7   0   0 810  0  0
   32 1298   0   0   0 395  0  0
   33 380   0 539 638 772  0  0
   34 525   0 808   2   1  0  0
   35 677   0 809 200 468  0  0
   36 120   8   0   0 810  0  0
   37 1298   0   0   0 395  0  0
   38 380   0 539 638 772  0  0
   39 525   0 808   2   1  0  0
   40 677   0 809 200 468  0  0
   41 120   1   0   0 810  0  0
   42 1298   0   0   0 395  0  0
   43 380   0 539 638 772  0  0
   44 525   0 808   2   1  0  0
   45 677   0 809 200 468  0  0
   46 120   9   0   0 810  0  0
   47 1298   0   0   0 395  0  0
   48 380   0 539 638 772  0  0
   49 525   0 808   2   1  0  0
   50 677   0 809 200 468  0  0
   51 120  10   0   0 810  0  0
   52 1298   0   0   0 395  0  0
   53 380   0 539 638 772  0  0
   54 525   0 808   2   1  0  0
   55 677   0 809 200 468  0  0
   56 120  11   0   0 810  0  0
   57 1298   0   0   0 395  0  0
   58 380   0 539 638 772  0  0
   59 525   0 808   2   1  0  0
   60 677   0 809 200 468  0  0
   61 120   4   0   0 810  0  0
   62 1298   0   0   0 395  0  0
   63 380   0 539 638 772  0  0
   64 525   0 808   2   1  0  0
   65 677   0 809 200 468  0  0
   66 120  10   0   0 810  0  0
   67 1298   0   0   0 395  0  0
   68 380   0 539 638 772  0  0
   69 525   0 808   2   1  0  0
   70 677   0 809 200 468  0  0
   71 120  12   0   0 810  0  0
   72 1298   0   0   0 395  0  0
   73 380   0 539 638 772  0  0
   74 525   0 808   2   1  0  0
   75 677   0 809 200 468  0  0
   76 120  13   0   0 810  0  0
   77 1298   0   0   0 395  0  0
   78 380   0 539 638 772  0  0
   79 525   0 808   2   1  0  0
   80 677   0 809 200 468  0  0
   81 120   8   0   0 810  0  0
   82 1298   0   0   0 395  0  0
   83 380   0 539 638 772  0  0
   84 525   0 808   2   1  0  0
   85 677   0 809 200 468  0  0
   86 120   9   0   0 810  0  0
   87 1298   0   0   0 395  0  0
   88 380   0 539 638 772  0  0
   89 525   0 808   2   1  0  0
   90 677   0 809 200 468  0  0
   91 120  14   0   0 810  0  0
   92 1298   0   0   0 395  0  0
   93 380   0 539 638 772  0  0
   94 525   0 808   2   1  0  0
   95 677   0 809 200 468  0  0
   96 120   5   0   0 810  0  0
   97 1298   0   0   0 395  0  0
   98 380   0 539 638 772  0  0
   99 525   0 808   2   1  0  0
  100 677   0 809 200 468  0  0
  101 120  11   0   0 810  0  0
  102 1298   0   0   0 395  0  0
  103 380   0 539 638 772  0  0
  104 525   0 808   2   1  0  0
  105 677   0 809 200 468  0  0
  106 120   6   0   0 810  0  0
  107 1298   0   0   0 395  0  0
  108 380   0 539 638 772  0  0
  109 525   0 808   2   1  0  0
  110 677   0 809 200 468  0  0
  111 120   2   0   0 810  0  0
  112 1298   0   0   0 395  0  0
  113 380   0 539 638 772  0  0
  114 525   0 808   2   1  0  0
  115 677   0 809 200 468  0  0
  116 120  15   0   0 810  0  0
  117 1298   0   0   0 395  0  0
  118 380   0 539 638 772  0  0
  119 525   0 808   2   1  0  0
  120 677   0 809 200 468  0  0
  121 120  13   0   0 810  0  0
  122 1298   0   0   0 395  0  0
  123 380   0 539 638 772  0  0
  124 525   0 808   2   1  0  0
  125 677   0 809 200 468  0  0
  126 120   2   0   0 810  0  0
  127 1298   0   0   0 395  0  0
  128 380   0 539 638 772  0  0
  129 525   0 808   2   1  0  0
  130 677   0 809 200 468  0  0
  131 120  14   0   0 810  0  0
  132 1298   0   0   0 395  0  0
  133 380   0 539 638 772  0  0
  134 525   0 808   2   1  0  0
  135 677   0 809 200 468  0  0
  136 120  16   0   0 810  0  0
  137 1298   0   0   0 395  0  0
  138 380   0 539 638 772  0  0
  139 525   0 808   2   1  0  0
  140 677   0 809 200 468  0  0
  141 120   5   0   0 810  0  0
  142 1298   0   0   0 395  0  0
  143 380   0 539 638 772  0  0
  144 525   0 808   2   1  0  0
  145 677   0 809 200 468  0  0
  146 120   3   0   0 810  0  0
  147 1298   0   0   0 395  0  0
  148 380   0 539 638 772  0  0
  149 525   0 808   2   1  0  0
  150 677   0 809 200 468  0  0
  151 120  12   0   0 810  0  0
  152 1298   0   0   0 395  0  0
  153 380   0 539 638 772  0  0
  154 525   0 808   2   1  0  0
  155 677   0 809 200 468  0  0
  156 120   8   0   0 810  0  0
  157 1298   0   0   0 395  0  0
  158 380   0 539 638 772  0  0
  159 525   0 808   2   1  0  0
  160 677   0 809 200 468  0  0
  161 120  15   0   0 810  0  0
  162 1298   0   0   0 395  0  0
  163 380   0 539 638 772  0  0
  164 525   0 808   2   1  0  0
  165 677   0 809 200 468  0  0
  166 120   7   0   0 810  0  0
  167 1298   0   0   0 395  0  0
  168 380   0 539 638 772  0  0
  169 525   0 808   2   1  0  0
  170 677   0 809 200 468  0  0
  171 120  10   0   0 810  0  0
  172 1298   0   0   0 395  0  0
  173 380   0 539 638 772  0  0
  174 525   0 808   2   1  0  0
  175 677   0 809 200 468  0  0
  176 120  16   0   0 810  0  0
  177 1298   0   0   0 395  0  0
  178 380   0 539 638 772  0  0
  179 525   0 808   2   1  0  0
  180 677   0 809 200 468  0  0
  181 120  16   0   0 810  0  0
  182 1298   0   0   0 395  0  0
  183 380   0 539 638 772  0  0
  184 525   0 808   2   1  0  0
  185 677   0 809 200 468  0  0
  186 120  10   0   0 810  0  0
  187 1298   0   0   0 395  0  0
  188 380   0 539 638 772  0  0
  189 525   0 808   2   1  0  0
  190 677   0 809 200 468  0  0
  191 120   7   0   0 810  0  0
  192 1298   0   0   0 395  0  0
  193 380   0 539 638 772  0  0
  194 525   0 808   2   1  0  0
  195 677   0 809 200 468  0  0
  196 120  15   0   0 810  0  0
  197 1298   0   0   0 395  0  0
  198 380   0 539 638 772  0  0
  199 525   0 808   2   1  0  0
  200 677   0 809 200 468  0  0
  201 120   8   0   0 810  0  0
  202 1298   0   0   0 395  0  0
  203 380   0 539 638 772  0  0
  204 525   0 808   2   1  0  0
  205 677   0 809 200 468  0  0
  206 120  12   0   0 810  0  0
  207 1298   0   0   0 395  0  0
  208 380   0 539 638 772  0  0
  209 525   0 808   2   1  0  0
  210 677   0 809 200 468  0  0
  211 120   3   0   0 810  0  0
  212 1298   0   0   0 395  0  0
  213 380   0 539 638 772  0  0
  214 525   0 808   2   1  0  0
  215 677   0 809 200 468  0  0
  216 120   5   0   0 810  0  0
  217 1298   0   0   0 395  0  0
  218 380   0 539 638 772  0  0
  219 525   0 808   2   1  0  0
  220 677   0 809 200 468  0  0
  221 120  16   0   0 810  0  0
  222 1298   0   0   0 395  0  0
  223 380   0 539 638 772  0  0
  224 525   0 808   2   1  0  0
  225 677   0 809 200 468  0  0
  226 120  14   0   0 810  0  0
  227 1298   0   0   0 395  0  0
  228 380   0 539 638 772  0  0
  229 525   0 808   2   1  0  0
  230 677   0 809 200 468  0  0
  231 120   2   0   0 810  0  0
  232 1298   0   0   0 395  0  0
  233 380   0 539 638 772  0  0
  234 525   0 808   2   1  0  0
  235 677   0 809 200 468  0  0
  236 120  13   0   0 810  0  0
  237 1298   0   0   0 395  0  0
  238 380   0 539 638 772  0  0
  239 525   0 808   2   1  0  0
  240 677   0 809 200 468  0  0
  241 120  15   0   0 810  0  0
  242 1298   0   0   0 395  0  0
  243 380   0 539 638 772  0  0
  244 525   0 808   2   1  0  0
  245 677   0 809 200 468  0  0
  246 120   2   0   0 810  0  0
  247 1298   0   0   0 395  0  0
  248 380   0 539 638 772  0  0
  249 525   0 808   2   1  0  0
  250 677   0 809 200 468  0  0
  251 120   6   0   0 810  0  0
  252 1298   0   0   0 395  0  0
  253 380   0 539 638 772  0  0
  254 525   0 808   2   1  0  0
  255 677   0 809 200 468  0  0
  256 120  11   0   0 810  0  0
  257 1298   0   0   0 395  0  0
  258 380   0 539 638 772  0  0
  259 525   0 808   2   1  0  0
  260 677   0 809 200 468  0  0
  261 120   5   0   0 810  0  0
  262 1298   0   0   0 395  0  0
  263 380   0 539 638 772  0  0
  264 525   0 808   2   1  0  0
  265 677   0 809 200 468  0  0
  266 120  14   0   0 810  0  0
  267 1298   0   0   0 395  0  0
  268 380   0 539 638 772  0  0
  269 525   0 808   2   1  0  0
[RF]
1      835.829 275 276 0 500 100 0 0 0 0 e
2      835.829 275 276 0 500 100 0 0 0 0.872665 e
3      835.829 275 276 0 500 100 0 0 0 2.61799 e
4      835.829 275 276 0 500 100 0 0 0 5.23599 e
5      835.829 275 276 0 500 100 0 0 0 2.44346 e
6      835.829 275 276 0 500 100 0 0 0 0.523599 e
7      835.829 275 276 0 500 100 0 0 0 5.75959 e
8      835.829 275 276 0 500 100 0 0 0 5.58505 e
9      835.829 275 276 0 500 100 0 0 0 1.5708 e
10      835.829 275 276 0 500 100 0 0 0 4.01426 e
11      835.829 275 276 0 500 100 0 0 0 1.0472 e
12      835.829 275 276 0 500 100 0 0 0 3.66519 e
13      835.829 275 276 0 500 100 0 0 0 4.18879 e
14      835.829 275 276 0 500 100 0 0 0 4.71239 e
15      835.829 275 276 0 500 100 0 0 0 2.0944 e
16      835.829 275 276 0 500 100 0 0 0 3.14159 e

# Format of arbitrary gradients:
#   time_shape_id of 0 means default timing (stepping with grad_raster starting at 1/2 of grad_raster)
# id amplitude first last amp_shape_id time_shape_id delay
# ..      Hz/m  Hz/m Hz/m        ..         ..          us
[GRADIENTS]
1       340608            0            0 1 0 0
2       339936            0            0 2 0 0
395      -597921            0            0 3 4 0
539       829591            0            0 5 6 0
540  1.05386e+06            0            0 7 6 0
541  1.04287e+06            0            0 8 6 0
542  1.03187e+06            0            0 9 6 0
543  1.02087e+06            0            0 10 6 0
544  1.00987e+06            0            0 11 6 0
545       998876            0            0 12 6 0
546       987879            0            0 13 6 0
547       976881            0            0 14 6 0
548       965884            0            0 15 6 0
549       954886            0            0 16 6 0
550       943888            0            0 17 6 0
551       932891            0            0 18 6 0
552       921893            0            0 19 6 0
553       910895            0            0 20 6 0
554       899898            0            0 21 6 0
555       888900            0            0 22 6 0
556       877902            0            0 23 6 0
557       866905            0            0 24 6 0
558       855907            0            0 25 6 0
559       844909            0            0 26 6 0
560       833912            0            0 27 6 0
561       822914            0            0 28 6 0
562       811917            0            0 29 6 0
563       800919            0            0 30 6 0
564       789921            0            0 31 6 0
565       778924            0            0 32 6 0
566       767926            0            0 33 6 0
567       756928            0            0 34 6 0
568       745931            0            0 35 6 0
569       734933            0            0 36 6 0
570       723935            0            0 37 6 0
571       712938            0            0 38 6 0
572       701940            0            0 39 6 0
573       690943            0            0 40 6 0
574       679945            0            0 41 6 0
575       668947            0            0 42 6 0
576       657950            0            0 43 6 0
577       646952            0            0 44 6 0
578       635954            0            0 45 6 0
579       624957            0            0 46 6 0
580       613959            0            0 47 6 0
581       602961            0            0 48 6 0
582       591964            0            0 49 6 0
583       580966            0            0 50 6 0
584       569968            0            0 51 6 0
585       558971            0            0 52 6 0
586       547973            0            0 53 6 0
587       536976            0            0 54 6 0
588       525978            0            0 55 6 0
589       514980            0            0 56 6 0
590       503983            0            0 57 6 0
591       492985            0            0 58 6 0
592       481987            0            0 59 6 0
593       470990            0            0 60 6 0
594       459992            0            0 61 6 0
595       448994            0            0 62 6 0
596       437997            0            0 63 6 0
597       426999            0            0 64 6 0
598       416001            0            0 65 6 0
599       405004            0            0 66 6 0
600       394006            0            0 67 6 0
601       383009            0            0 68 6 0
602       372011            0            0 69 6 0
603       361013            0            0 70 6 0
604       350016            0            0 71 6 0
605       339018            0            0 72 6 0
606       328020            0            0 73 6 0
607       317023            0            0 74 6 0
608       306025            0            0 75 6 0
609       295027            0            0 76 6 0
610       284030            0            0 77 6 0
611       273032            0            0 78 6 0
612       262035            0            0 79 6 0
613       251037            0            0 80 6 0
614       240039            0            0 81 6 0
615       229042            0            0 82 6 0
616       218044            0            0 83 6 0
617       207046            0            0 84 6 0
618       196049            0            0 85 6 0
619       185051            0            0 86 6 0
620       174053            0            0 87 6 0
621       163056            0            0 88 6 0
622       152058            0            0 89 6 0
623       141060            0            0 90 6 0
624       130063            0            0 91 6 0
625       119065            0            0 92 6 0
626       108068            0            0 93 6 0
627      97069.9            0            0 94 6 0
628      86072.3            0            0 95 6 0
629      75074.6            0            0 96 6 0
630        64077            0            0 97 6 0
631      53079.3            0            0 98 6 0
632      42081.7            0            0 99 6 0
633      31084.1            0            0 100 6 0
634      20086.4            0            0 101 6 0
635     -9088.78            0            0 102 6 0
636     -8768.98            0            0 103 6 0
637     -16336.6            0            0 104 6 0
638     -23904.1            0            0 105 6 0
639     -34901.8            0            0 106 6 0
640     -45899.4            0            0 107 6 0
641     -56897.1            0            0 108 6 0
642     -67894.7            0            0 109 6 0
643     -78892.3            0            0 110 6 0
644       -89890            0            0 111 6 0
645      -100888            0            0 112 6 0
646      -111885            0            0 113 6 0
647      -122883            0            0 114 6 0
648      -133881            0            0 115 6 0
649      -144878            0            0 116 6 0
650      -155876            0            0 117 6 0
651      -166873            0            0 118 6 0
652      -177871            0            0 119 6 0
653      -188869            0            0 120 6 0
654      -199866            0            0 121 6 0
655      -210864            0            0 122 6 0
656      -221862            0            0 123 6 0
657      -232859            0            0 124 6 0
658      -243857            0            0 125 6 0
659      -254855            0            0 126 6 0
660      -265852            0            0 127 6 0
661      -276850            0            0 128 6 0
662      -287848            0            0 129 6 0
663      -298845            0            0 130 6 0
664      -309843            0            0 131 6 0
665      -320840            0            0 132 6 0
666      -331838            0            0 133 6 0
667      -342836            0            0 134 6 0
668      -353833            0            0 135 6 0
669      -364831            0            0 136 6 0
670      -375829            0            0 137 6 0
671      -386826            0            0 138 6 0
672      -397824            0            0 139 6 0
673      -408822            0            0 140 6 0
674      -419819            0            0 141 6 0
675      -430817            0            0 142 6 0
676      -441814            0            0 143 6 0
677      -452812            0            0 144 6 0
678      -463810            0            0 145 6 0
679      -474807            0            0 146 6 0
680      -485805            0            0 147 6 0
681      -496803            0            0 148 6 0
682      -507800            0            0 149 6 0
683      -518798            0            0 150 6 0
684      -529796            0            0 151 6 0
685      -540793            0            0 152 6 0
686      -551791            0            0 153 6 0
687      -562789            0            0 154 6 0
688      -573786            0            0 155 6 0
689      -584784            0            0 156 6 0
690      -595781            0            0 157 6 0
691      -606779            0            0 158 6 0
692      -617777            0            0 159 6 0
693      -628774            0            0 160 6 0
694      -639772            0            0 161 6 0
695      -650770            0            0 162 6 0
696      -661767            0            0 163 6 0
697      -672765            0            0 164 6 0
698      -683763            0            0 165 6 0
699      -694760            0            0 166 6 0
700      -705758            0            0 167 6 0
701      -716756            0            0 168 6 0
702      -727753            0            0 169 6 0
703      -738751            0            0 170 6 0
704      -749748            0            0 171 6 0
705      -760746            0            0 172 6 0
706      -771744            0            0 173 6 0
707      -782741            0            0 174 6 0
708      -793739            0            0 175 6 0
709      -804737            0            0 176 6 0
710      -815734            0            0 177 6 0
711      -826732            0            0 178 6 0
712      -837730            0            0 179 6 0
713      -848727            0            0 180 6 0
714      -859725            0            0 181 6 0
715      -870722            0            0 182 6 0
716      -881720            0            0 183 6 0
717      -892718            0            0 184 6 0
718      -903715            0            0 185 6 0
719      -914713            0            0 186 6 0
720      -925711            0            0 187 6 0
721      -936708            0            0 188 6 0
722      -947706            0            0 189 6 0
723      -958704            0            0 190 6 0
724      -969701            0            0 191 6 0
725      -980699            0            0 192 6 0
726      -991697            0            0 193 6 0
727 -1.00269e+06            0            0 194 6 0
728 -1.01369e+06            0            0 195 6 0
729 -1.02469e+06            0            0 196 6 0
730 -1.03569e+06            0            0 197 6 0
731 -1.04668e+06            0            0 198 6 0
732 -1.05768e+06            0            0 199 6 0
733 -1.06868e+06            0            0 200 6 0
734 -1.07968e+06            0            0 201 6 0
735 -1.09068e+06            0            0 202 6 0
736       398759            0            0 203 6 0
737       388250            0            0 204 6 0
738       377741            0            0 205 6 0
739       367232            0            0 206 6 0
740       356723            0            0 207 6 0
741       346215            0            0 208 6 0
742       335706            0            0 209 6 0
743       325197            0            0 210 6 0
744       314688            0            0 211 6 0
745       304179            0            0 212 6 0
746       293670            0            0 213 6 0
747       283161            0            0 214 6 0
748       272653            0            0 215 6 0
749       262144            0            0 216 6 0
750       251635            0            0 217 6 0
751       241126            0            0 218 6 0
752       230617            0            0 219 6 0
753       220108            0            0 220 6 0
754       209599            0            0 221 6 0
755       199091            0            0 222 6 0
756       188582            0            0 223 6 0
757       178073            0            0 224 6 0
758       167564            0            0 225 6 0
759       157055            0            0 226 6 0
760       146546            0            0 227 6 0
761       136037            0            0 228 6 0
762       125529            0            0 229 6 0
763       115020            0            0 230 6 0
764       104511            0            0 231 6 0
765      94002.1            0            0 232 6 0
766      83493.2            0            0 233 6 0
767      72984.3            0            0 234 6 0
768      62475.5            0            0 235 6 0
769      51966.6            0            0 236 6 0
770      41457.8            0            0 237 6 0
771      30948.9            0            0 238 6 0
772      20440.1            0            0 239 6 0
773      9931.21            0            0 240 6 0
774     -6581.71            0            0 241 6 0
775       -13813            0            0 242 6 0
776     -21595.4            0            0 243 6 0
777     -32104.2            0            0 244 6 0
778     -42613.1            0            0 245 6 0
779     -53121.9            0            0 246 6 0
780     -63630.8            0            0 247 6 0
781     -74139.6            0            0 248 6 0
782     -84648.5            0            0 249 6 0
783     -95157.4            0            0 250 6 0
784      -105666            0            0 251 6 0
785      -116175            0            0 252 6 0
786      -126684            0            0 253 6 0
787      -137193            0            0 254 6 0
788      -147702            0            0 255 6 0
789      -158210            0            0 256 6 0
790      -168719            0            0 257 6 0
791      -179228            0            0 258 6 0
792      -189737            0            0 259 6 0
793      -200246            0            0 260 6 0
794      -210755            0            0 261 6 0
795      -221264            0            0 262 6 0
796      -231772            0            0 263 6 0
797      -242281            0            0 264 6 0
798      -252790            0            0 265 6 0
799      -263299            0            0 266 6 0
800      -273808            0            0 267 6 0
801      -284317            0            0 268 6 0
802      -294826            0            0 269 6 0
803      -305334            0            0 270 6 0
804      -315843            0            0 271 6 0
805      -326352            0            0 272 6 0
806      -336861            0            0 273 6 0
807      -347370            0            0 274 6 0
813      -603235            0       340608 277 0 0
814       775771       340608            0 278 279 0
817      -591158            0       340608 280 0 0
818       775896       340608            0 281 282 0
821      -579081            0       340608 283 0 0
822       776028       340608            0 284 285 0
825      -567004            0       340608 286 0 0
826       740620       340608            0 287 288 0
829      -554926            0       340608 289 0 0
830       739873       340608            0 290 291 0
833      -542849            0       340608 292 0 0
834       739087       340608            0 293 294 0
837      -530772            0       340608 295 0 0
838       711371       340608            0 296 297 0
841      -518694            0       340608 298 0 0
842       709772       340608            0 299 300 0
845      -506617            0       340608 301 0 0
846       708086       340608            0 302 303 0
849      -494540            0       340608 304 0 0
850       706302       340608            0 305 306 0
853      -482463            0       340608 307 0 0
854       646357       340608            0 308 309 0
857      -470385            0       340608 310 0 0
858       651698       340608            0 311 312 0
861      -458308            0       340608 313 0 0
862       648098       340608            0 314 315 0
865      -446231            0       340608 316 0 0
866       644273       340608            0 317 318 0
869      -434153            0       340608 319 0 0
870       620195       340608            0 320 321 0
873      -422076            0       340608 322 0 0
874       615346       340608            0 323 324 0
877      -409999            0       340608 325 0 0
878       619470       340608            0 326 327 0
881      -397921            0       340608 328 0 0
882       557665       340608            0 329 330 0
885      -385844            0       340608 331 0 0
886       524747       340608            0 332 333 0
889      -373767            0       340608 334 0 0
890       522546       340608            0 335 336 0
893      -361690            0       340608 337 0 0
894       495028       340608            0 338 339 0
897      -349612            0       340608 340 0 0
898       496363       340608            0 341 342 0
901      -340608            0       340608 343 0 0
902       465543       340608            0 344 345 0
905      -340608            0       340608 346 0 0
906       434722       340608            0 347 348 0
909      -340608            0       340608 349 0 0
910       428016       340608            0 350 351 0
913      -340608            0       340608 352 0 0
914       466353       340608            0 353 354 0
917      -340608            0       340608 355 0 0
918       432418       340608            0 356 357 0
921      -340608            0       340608 358 0 0
922       372272       340608            0 359 360 0
925      -340608            0       340608 361 0 0
926       340608       340608            0 362 363 0
929      -340608            0       340608 364 0 0
930       370922       340608            0 365 366 0
933      -340608            0       340608 367 0 0
934       342380       340608            0 368 369 0
937      -340608            0       340608 370 0 0
938       340608       340608            0 371 372 0
941      -340608            0       340608 373 0 0
942       340608       340608            0 374 375 0
945      -340608            0       340608 376 0 0
946       340608       340608            0 377 378 0
949      -340608            0       340608 379 0 0
950       340608       340608            0 380 381 0
953      -340608            0       340608 382 0 0
954       340608       340608            0 383 384 0
957      -340608            0       340608 385 0 0
958       340608       340608            0 386 387 0
961      -340608            0       340608 388 0 0
962       340608       340608            0 389 390 0
965      -340608            0       340608 391 0 0
966       340608       340608            0 392 393 0
969      -340608            0       340608 394 0 0
970       343395       340608            0 395 396 0
973      -340608            0       340608 397 0 0
974       374182       340608            0 398 399 0
977      -340608            0       340608 400 0 0
978       403305       340608            0 401 402 0
981      -340608            0       340608 403 0 0
982       400835       340608            0 404 405 0
985      -340608            0       340608 406 0 0
986       426466       340608            0 407 408 0
989      -340608            0       340608 409 0 0
990       461874       340608            0 410 411 0
993      -340608            0       340608 412 0 0
994       466231       340608            0 413 414 0
997      -340608            0       340608 415 0 0
998       488629       340608            0 416 417 0
1001      -340608            0       340608 418 0 0
1002       491538       340608            0 419 420 0
1005      -340608            0       340608 421 0 0
1006       523098       340608            0 422 423 0
1009      -340608            0       340608 424 0 0
