# Pulseq sequence file
# Created by MATLAB mr toolbox

[VERSION]
major 1
minor 5
revision 1

[DEFINITIONS]
AdcRasterTime 1e-07 
BlockDurationRaster 1e-05 
FOV 0.172 0.22 0.256 
FlipAngle 7 
GradientRasterTime 1e-05 
NParts 5 
Nacs 32 
Name gre_witness_merged_calib_172x220x256_Nxos1024_Ncalib72x1_Nacs32_Ndummy300_Nsettle10_os4_amp8_cycles10_SAG_prisma 
Ncalib1 72 
Ncalib2 1 
Ndummy 300 
NsettlePerPart 10 
Nx 172 
Nx_os 1024 
Ny 220 
Nz 256 
OrientationMapping SAG 
Part0_IsACS 0 
Part0_KyPhysStart0 74 
Part0_KyPhysStop0 145 
Part0_KzPhysStart0 86 
Part0_KzPhysStop0 86 
Part0_Mode nowave 
Part0_NLinLocal 72 
Part0_NParLocal 1 
Part0_Name nowave_kywide_kznarrow 
Part0_SetID 0 
Part1_IsACS 0 
Part1_KyPhysStart0 74 
Part1_KyPhysStop0 145 
Part1_KzPhysStart0 86 
Part1_KzPhysStop0 86 
Part1_Mode sin 
Part1_NLinLocal 72 
Part1_NParLocal 1 
Part1_Name sin_kywide_kznarrow 
Part1_SetID 1 
Part2_IsACS 0 
Part2_KyPhysStart0 110 
Part2_KyPhysStop0 110 
Part2_KzPhysStart0 50 
Part2_KzPhysStop0 121 
Part2_Mode nowave 
Part2_NLinLocal 1 
Part2_NParLocal 72 
Part2_Name nowave_kzwide_kynarrow 
Part2_SetID 2 
Part3_IsACS 0 
Part3_KyPhysStart0 110 
Part3_KyPhysStop0 110 
Part3_KzPhysStart0 50 
Part3_KzPhysStop0 121 
Part3_Mode cos 
Part3_NLinLocal 1 
Part3_NParLocal 72 
Part3_Name cos_kzwide_kynarrow 
Part3_SetID 3 
Part4_IsACS 1 
Part4_KyPhysStart0 94 
Part4_KyPhysStop0 125 
Part4_KzPhysStart0 70 
Part4_KzPhysStop0 101 
Part4_Mode nowave 
Part4_NLinLocal 32 
Part4_NParLocal 32 
Part4_Name acs_nowave_center 
Part4_SetID 4 
RadiofrequencyRasterTime 1e-06 
ReadoutOversamplingFactor 4 
ReceiverGainHigh 1 
SliceThickness 0.001 
TE 0.0035925 
TR 0.00759 
TotalDuration 12.61595 
ro_os 4 

# Format of blocks:
# NUM DUR RF  GX  GY  GZ  ADC  EXT
[BLOCKS]
   1 157   1   0   0   0  0  0
   2 602   0 361 1141 1551  0  0
   3 157   2 362 1142 1550  0  0
   4 602   0 365 1141 1551  0  0
   5 157   3 366 1142 1550  0  0
   6 602   0 369 1141 1551  0  0
   7 157   4 370 1142 1550  0  0
   8 602   0 373 1141 1551  0  0
   9 157   5 374 1142 1550  0  0
  10 602   0 377 1141 1551  0  0
  11 157   6 378 1142 1550  0  0
  12 602   0 381 1141 1551  0  0
  13 157   7 382 1142 1550  0  0
  14 602   0 385 1141 1551  0  0
  15 157   8 386 1142 1550  0  0
  16 602   0 389 1141 1551  0  0
  17 157   1 390 1142 1550  0  0
  18 602   0 393 1141 1551  0  0
  19 157   9 394 1142 1550  0  0
  20 602   0 397 1141 1551  0  0
  21 157  10 398 1142 1550  0  0
  22 602   0 401 1141 1551  0  0
  23 157  11 402 1142 1550  0  0
  24 602   0 405 1141 1551  0  0
  25 157   4 406 1142 1550  0  0
  26 602   0 281 1145 1551  0  0
  27 157  10 282 1146 1550  0  0
  28 602   0 285 1145 1551  0  0
  29 157  12 286 1146 1550  0  0
  30 602   0 289 1145 1551  0  0
  31 157  13 290 1146 1550  0  0
  32 602   0 293 1145 1551  0  0
  33 157   8 294 1146 1550  0  0
  34 602   0 297 1145 1551  0  0
  35 157   9 298 1146 1550  0  0
  36 602   0 301 1145 1551  0  0
  37 157  14 302 1146 1550  0  0
  38 602   0 305 1145 1551  0  0
  39 157   5 306 1146 1550  0  0
  40 602   0 309 1145 1551  0  0
  41 157  11 310 1146 1550  0  0
  42 602   0 313 1145 1551  0  0
  43 157   6 314 1146 1550  0  0
  44 602   0 317 1145 1551  0  0
  45 157   2 318 1146 1550  0  0
  46 602   0 321 1145 1551  0  0
  47 157  15 322 1146 1550  0  0
  48 602   0 325 1145 1551  0  0
  49 157  13 326 1146 1550  0  0
  50 602   0 329 1145 1551  0  0
  51 157   2 330 1146 1550  0  0
  52 602   0 333 1145 1551  0  0
  53 157  14 334 1146 1550  0  0
  54 602   0 337 1145 1551  0  0
  55 157  16 338 1146 1550  0  0
  56 602   0 341 1145 1551  0  0
  57 157   5 342 1146 1550  0  0
  58 602   0 345 1145 1551  0  0
  59 157   3 346 1146 1550  0  0
  60 602   0 349 1145 1551  0  0
  61 157  12 350 1146 1550  0  0
  62 602   0 353 1145 1551  0  0
  63 157   8 354 1146 1550  0  0
  64 602   0 357 1145 1551  0  0
  65 157  15 358 1146 1550  0  0
  66 602   0 361 1145 1551  0  0
  67 157   7 362 1146 1550  0  0
  68 602   0 365 1145 1551  0  0
  69 157  10 366 1146 1550  0  0
  70 602   0 369 1145 1551  0  0
  71 157  16 370 1146 1550  0  0
  72 602   0 373 1145 1551  0  0
  73 157  16 374 1146 1550  0  0
  74 602   0 377 1145 1551  0  0
  75 157  10 378 1146 1550  0  0
  76 602   0 381 1145 1551  0  0
  77 157   7 382 1146 1550  0  0
  78 602   0 385 1145 1551  0  0
  79 157  15 386 1146 1550  0  0
  80 602   0 389 1145 1551  0  0
  81 157   8 390 1146 1550  0  0
  82 602   0 393 1145 1551  0  0
  83 157  12 394 1146 1550  0  0
  84 602   0 397 1145 1551  0  0
  85 157   3 398 1146 1550  0  0
  86 602   0 401 1145 1551  0  0
  87 157   5 402 1146 1550  0  0
  88 602   0 405 1145 1551  0  0
  89 157  16 406 1146 1550  0  0
  90 602   0 281 1149 1551  0  0
  91 157  14 282 1150 1550  0  0
  92 602   0 285 1149 1551  0  0
  93 157   2 286 1150 1550  0  0
  94 602   0 289 1149 1551  0  0
  95 157  13 290 1150 1550  0  0
  96 602   0 293 1149 1551  0  0
  97 157  15 294 1150 1550  0  0
  98 602   0 297 1149 1551  0  0
  99 157   2 298 1150 1550  0  0
 100 602   0 301 1149 1551  0  0
 101 157   6 302 1150 1550  0  0
 102 602   0 305 1149 1551  0  0
 103 157  11 306 1150 1550  0  0
 104 602   0 309 1149 1551  0  0
 105 157   5 310 1150 1550  0  0
 106 602   0 313 1149 1551  0  0
 107 157  14 314 1150 1550  0  0
 108 602   0 317 1149 1551  0  0
 109 157   9 318 1150 1550  0  0
 110 602   0 321 1149 1551  0  0
 111 157   8 322 1150 1550  0  0
 112 602   0 325 1149 1551  0  0
 113 157  13 326 1150 1550  0  0
 114 602   0 329 1149 1551  0  0
 115 157  12 330 1150 1550  0  0
 116 602   0 333 1149 1551  0  0
 117 157  10 334 1150 1550  0  0
 118 602   0 337 1149 1551  0  0
 119 157   4 338 1150 1550  0  0
 120 602   0 341 1149 1551  0  0
 121 157  11 342 1150 1550  0  0
 122 602   0 345 1149 1551  0  0
 123 157  10 346 1150 1550  0  0
 124 602   0 349 1149 1551  0  0
 125 157   9 350 1150 1550  0  0
 126 602   0 353 1149 1551  0  0
 127 157   1 354 1150 1550  0  0
 128 602   0 357 1149 1551  0  0
 129 157   8 358 1150 1550  0  0
 130 602   0 361 1149 1551  0  0
 131 157   7 362 1150 1550  0  0
 132 602   0 365 1149 1551  0  0
 133 157   6 366 1150 1550  0  0
 134 602   0 369 1149 1551  0  0
 135 157   5 370 1150 1550  0  0
 136 602   0 373 1149 1551  0  0
 137 157   4 374 1150 1550  0  0
 138 602   0 377 1149 1551  0  0
 139 157   3 378 1150 1550  0  0
 140 602   0 381 1149 1551  0  0
 141 157   2 382 1150 1550  0  0
 142 602   0 385 1149 1551  0  0
 143 157   1 386 1150 1550  0  0
 144 602   0 389 1149 1551  0  0
 145 157   1 390 1150 1550  0  0
 146 602   0 393 1149 1551  0  0
 147 157   2 394 1150 1550  0  0
 148 602   0 397 1149 1551  0  0
 149 157   3 398 1150 1550  0  0
 150 602   0 401 1149 1551  0  0
 151 157   4 402 1150 1550  0  0
 152 602   0 405 1149 1551  0  0
 153 157   5 406 1150 1550  0  0
 154 602   0 281 1153 1551  0  0
 155 157   6 282 1154 1550  0  0
 156 602   0 285 1153 1551  0  0
 157 157   7 286 1154 1550  0  0
 158 602   0 289 1153 1551  0  0
 159 157   8 290 1154 1550  0  0
 160 602   0 293 1153 1551  0  0
 161 157   1 294 1154 1550  0  0
 162 602   0 297 1153 1551  0  0
 163 157   9 298 1154 1550  0  0
 164 602   0 301 1153 1551  0  0
 165 157  10 302 1154 1550  0  0
 166 602   0 305 1153 1551  0  0
 167 157  11 306 1154 1550  0  0
 168 602   0 309 1153 1551  0  0
 169 157   4 310 1154 1550  0  0
 170 602   0 313 1153 1551  0  0
 171 157  10 314 1154 1550  0  0
 172 602   0 317 1153 1551  0  0
 173 157  12 318 1154 1550  0  0
 174 602   0 321 1153 1551  0  0
 175 157  13 322 1154 1550  0  0
 176 602   0 325 1153 1551  0  0
 177 157   8 326 1154 1550  0  0
 178 602   0 329 1153 1551  0  0
 179 157   9 330 1154 1550  0  0
 180 602   0 333 1153 1551  0  0
 181 157  14 334 1154 1550  0  0
 182 602   0 337 1153 1551  0  0
 183 157   5 338 1154 1550  0  0
 184 602   0 341 1153 1551  0  0
 185 157  11 342 1154 1550  0  0
 186 602   0 345 1153 1551  0  0
 187 157   6 346 1154 1550  0  0
 188 602   0 349 1153 1551  0  0
 189 157   2 350 1154 1550  0  0
 190 602   0 353 1153 1551  0  0
 191 157  15 354 1154 1550  0  0
 192 602   0 357 1153 1551  0  0
 193 157  13 358 1154 1550  0  0
 194 602   0 361 1153 1551  0  0
 195 157   2 362 1154 1550  0  0
 196 602   0 365 1153 1551  0  0
 197 157  14 366 1154 1550  0  0
 198 602   0 369 1153 1551  0  0
 199 157  16 370 1154 1550  0  0
 200 602   0 373 1153 1551  0  0
 201 157   5 374 1154 1550  0  0
 202 602   0 377 1153 1551  0  0
 203 157   3 378 1154 1550  0  0
 204 602   0 381 1153 1551  0  0
 205 157  12 382 1154 1550  0  0
 206 602   0 385 1153 1551  0  0
 207 157   8 386 1154 1550  0  0
 208 602   0 389 1153 1551  0  0
 209 157  15 390 1154 1550  0  0
 210 602   0 393 1153 1551  0  0
 211 157   7 394 1154 1550  0  0
 212 602   0 397 1153 1551  0  0
 213 157  10 398 1154 1550  0  0
 214 602   0 401 1153 1551  0  0
 215 157  16 402 1154 1550  0  0
 216 602   0 405 1153 1551  0  0
 217 157  16 406 1154 1550  0  0
 218 602   0 281 1157 1551  0  0
 219 157  10 282 1158 1550  0  0
 220 602   0 285 1157 1551  0  0
 221 157   7 286 1158 1550  0  0
 222 602   0 289 1157 1551  0  0
 223 157  15 290 1158 1550  0  0
 224 602   0 293 1157 1551  0  0
 225 157   8 294 1158 1550  0  0
 226 602   0 297 1157 1551  0  0
 227 157  12 298 1158 1550  0  0
 228 602   0 301 1157 1551  0  0
 229 157   3 302 1158 1550  0  0
 230 602   0 305 1157 1551  0  0
 231 157   5 306 1158 1550  0  0
 232 602   0 309 1157 1551  0  0
 233 157  16 310 1158 1550  0  0
 234 602   0 313 1157 1551  0  0
 235 157  14 314 1158 1550  0  0
 236 602   0 317 1157 1551  0  0
 237 157   2 318 1158 1550  0  0
 238 602   0 321 1157 1551  0  0
 239 157  13 322 1158 1550  0  0
 240 602   0 325 1157 1551  0  0
 241 157  15 326 1158 1550  0  0
 242 602   0 329 1157 1551  0  0
 243 157   2 330 1158 1550  0  0
 244 602   0 333 1157 1551  0  0
 245 157   6 334 1158 1550  0  0
 246 602   0 337 1157 1551  0  0
 247 157  11 338 1158 1550  0  0
 248 602   0 341 1157 1551  0  0
 249 157   5 342 1158 1550  0  0
[RF]
1      194.444 741 742 743 50 1370 0 0 0 0 e
2      194.444 741 742 743 50 1370 0 0 0 0.872665 e
3      194.444 741 742 743 50 1370 0 0 0 2.61799 e
4      194.444 741 742 743 50 1370 0 0 0 5.23599 e
5      194.444 741 742 743 50 1370 0 0 0 2.44346 e
6      194.444 741 742 743 50 1370 0 0 0 0.523599 e
7      194.444 741 742 743 50 1370 0 0 0 5.75959 e
8      194.444 741 742 743 50 1370 0 0 0 5.58505 e
9      194.444 741 742 743 50 1370 0 0 0 1.5708 e
10      194.444 741 742 743 50 1370 0 0 0 4.01426 e
11      194.444 741 742 743 50 1370 0 0 0 1.0472 e
12      194.444 741 742 743 50 1370 0 0 0 3.66519 e
13      194.444 741 742 743 50 1370 0 0 0 4.18879 e
14      194.444 741 742 743 50 1370 0 0 0 4.71239 e
15      194.444 741 742 743 50 1370 0 0 0 2.0944 e
16      194.444 741 742 743 50 1370 0 0 0 3.14159 e

# Format of arbitrary gradients:
#   time_shape_id of 0 means default timing (stepping with grad_raster starting at 1/2 of grad_raster)
# id amplitude first last amp_shape_id time_shape_id delay
# ..      Hz/m  Hz/m Hz/m        ..         ..          us
[GRADIENTS]
3       957039            0       340608 1 0 0
4  1.21678e+06       340608            0 2 3 0
7       943976            0       340608 4 0 0
8  1.21734e+06       340608            0 5 6 0
11       930912            0       340608 7 0 0
12   1.2179e+06       340608            0 8 9 0
15       917849            0       340608 10 0 0
16  1.21848e+06       340608            0 11 12 0
19       904785            0       340608 13 0 0
20  1.19013e+06       340608            0 14 15 0
23       891722            0       340608 16 0 0
24  1.19042e+06       340608            0 17 18 0
27       878659            0       340608 19 0 0
28  1.19071e+06       340608            0 20 21 0
31       865595            0       340608 22 0 0
32  1.19101e+06       340608            0 23 24 0
35       852532            0       340608 25 0 0
36  1.16235e+06       340608            0 26 27 0
39       839469            0       340608 28 0 0
40  1.16234e+06       340608            0 29 30 0
43       826405            0       340608 31 0 0
44  1.16234e+06       340608            0 32 33 0
47       813342            0       340608 34 0 0
48  1.16233e+06       340608            0 35 36 0
51       800278            0       340608 37 0 0
52  1.13336e+06       340608            0 38 39 0
55       787215            0       340608 40 0 0
56  1.13304e+06       340608            0 41 42 0
59       774152            0       340608 43 0 0
60  1.13271e+06       340608            0 44 45 0
63       761088            0       340608 46 0 0
64  1.13237e+06       340608            0 47 48 0
67       748025            0       340608 49 0 0
68  1.10308e+06       340608            0 50 51 0
71       734962            0       340608 52 0 0
72  1.10241e+06       340608            0 53 54 0
75       721898            0       340608 55 0 0
76  1.10172e+06       340608            0 56 57 0
79       708835            0       340608 58 0 0
80  1.10102e+06       340608            0 59 60 0
83       695771            0       340608 61 0 0
84  1.07143e+06       340608            0 62 63 0
87       682708            0       340608 64 0 0
88  1.07038e+06       340608            0 65 66 0
91       669645            0       340608 67 0 0
92   1.0693e+06       340608            0 68 69 0
95       656581            0       340608 70 0 0
96   1.0682e+06       340608            0 71 72 0
99       643518            0       340608 73 0 0
100   1.0383e+06       340608            0 74 75 0
103       630455            0       340608 76 0 0
104  1.03683e+06       340608            0 77 78 0
107       617391            0       340608 79 0 0
108  1.03534e+06       340608            0 80 81 0
111       604328            0       340608 82 0 0
112   1.0338e+06       340608            0 83 84 0
115       591264            0       340608 85 0 0
116  1.01569e+06       340608            0 86 87 0
119       578201            0       340608 88 0 0
120  1.01389e+06       340608            0 89 90 0
123       565138            0       340608 91 0 0
124  1.01205e+06       340608            0 92 93 0
127       552074            0       340608 94 0 0
128       981378       340608            0 95 96 0
131       539011            0       340608 97 0 0
132       979138       340608            0 98 99 0
135       525948            0       340608 100 0 0
136       976842       340608            0 101 102 0
139       512884            0       340608 103 0 0
140       974489       340608            0 104 105 0
143       499821            0       340608 106 0 0
144       955458       340608            0 107 108 0
147       486757            0       340608 109 0 0
148       952800       340608            0 110 111 0
151       473694            0       340608 112 0 0
152       950073       340608            0 113 114 0
155       460631            0       340608 115 0 0
156       918618       340608            0 116 117 0
159       447567            0       340608 118 0 0
160       927493       340608            0 119 120 0
163       434504            0       340608 121 0 0
164       924355       340608            0 122 123 0
167       421440            0       340608 124 0 0
168       892411       340608            0 125 126 0
171       408377            0       340608 127 0 0
172       888806       340608            0 128 129 0
175       395314            0       340608 130 0 0
176       897228       340608            0 131 132 0
179       382250            0       340608 133 0 0
180       864787       340608            0 134 135 0
183       369187            0       340608 136 0 0
184       860705       340608            0 137 138 0
187       356124            0       340608 139 0 0
188       868573       340608            0 140 141 0
191       343060            0       340608 142 0 0
192       835629       340608            0 143 144 0
195       340608            0       340608 145 0 0
196       831021       340608            0 146 147 0
199       340608            0       340608 148 0 0
200       838257       340608            0 149 150 0
203       340608            0       340608 151 0 0
204       804804       340608            0 152 153 0
207       340608            0       340608 154 0 0
208       799616       340608            0 155 156 0
211       340608            0       340608 157 0 0
212       806130       340608            0 158 159 0
215       340608            0       340608 160 0 0
216       772167       340608            0 161 162 0
219       340608            0       340608 163 0 0
220       777947       340608            0 164 165 0
223       340608            0       340608 166 0 0
224       772027       340608            0 167 168 0
227       340608            0       340608 169 0 0
228       748898       340608            0 170 171 0
231       340608            0       340608 172 0 0
232       742431       340608            0 173 174 0
235       340608            0       340608 175 0 0
236       718940       340608            0 176 177 0
239       340608            0       340608 178 0 0
240       711895       340608            0 179 180 0
243       340608            0       340608 181 0 0
244       716173       340608            0 182 183 0
247       340608            0       340608 184 0 0
248       691527       340608            0 185 186 0
251       340608            0       340608 187 0 0
252       683673       340608            0 188 189 0
255       340608            0       340608 190 0 0
256       658616       340608            0 191 192 0
259       340608            0       340608 193 0 0
260       661279       340608            0 194 195 0
263       340608            0       340608 196 0 0
264       652481       340608            0 197 198 0
267       340608            0       340608 199 0 0
268       626105       340608            0 200 201 0
271       340608            0       340608 202 0 0
272       627731       340608            0 203 204 0
275       340608            0       340608 205 0 0
276       600397       340608            0 206 207 0
279       340608            0       340608 208 0 0
280       601114       340608            0 209 210 0
283       340608            0       340608 211 0 0
284       572748       340608            0 212 213 0
287       340608            0       340608 214 0 0
288       572409       340608            0 215 216 0
291       340608            0       340608 217 0 0
292       542930       340608            0 218 219 0
295      -340608            0       340608 220 0 0
296       541360       340608            0 221 222 0
299      -340608            0       340608 223 0 0
300       510679       340608            0 224 225 0
303      -340608            0       340608 226 0 0
304       507669       340608            0 227 228 0
307      -340608            0       340608 229 0 0
308       475682       340608            0 230 231 0
311      -340608            0       340608 232 0 0
312       453340       340608            0 233 234 0
315      -340608            0       340608 235 0 0
316       447520       340608            0 236 237 0
319      -340608            0       340608 238 0 0
320       422964       340608            0 239 240 0
323      -340608            0       340608 241 0 0
324       415236       340608            0 242 243 0
327      -340608            0       340608 244 0 0
328       388032       340608            0 245 246 0
331      -340608            0       340608 247 0 0
332       359433       340608            0 248 249 0
335      -340608            0       340608 250 0 0
336       340608       340608            0 251 252 0
339      -340608            0       340608 253 0 0
340       340608       340608            0 254 255 0
343      -340608            0       340608 256 0 0
344       340608       340608            0 257 258 0
347      -340608            0       340608 259 0 0
348       340608       340608            0 260 261 0
351      -340608            0       340608 262 0 0
352       340608       340608            0 263 264 0
355      -340608            0       340608 265 0 0
356       340608       340608            0 266 267 0
359      -340608            0       340608 268 0 0
360       340608       340608            0 269 270 0
363      -340608            0       340608 271 0 0
364       340608       340608            0 272 273 0
367      -340608            0       340608 274 0 0
368       340608       340608            0 275 276 0
371      -340608            0       340608 277 0 0
372       340608       340608            0 278 279 0
375      -340608            0       340608 280 0 0
376       349061       340608            0 281 282 0
379      -340608            0       340608 283 0 0
380       340608       340608            0 284 285 0
383      -340608            0       340608 286 0 0
384       380492       340608            0 287 288 0
387      -340608            0       340608 289 0 0
388       412425       340608            0 290 291 0
391      -340608            0       340608 292 0 0
392       471216       340608            0 293 294 0
395      -340608            0       340608 295 0 0
396       436369       340608            0 296 297 0
399      -340608            0       340608 298 0 0
400       466637       340608            0 299 300 0
403      -353169            0       340608 301 0 0
404       470470       340608            0 302 303 0
407      -366233            0       340608 304 0 0
408       500921       340608            0 305 306 0
411      -379296            0       340608 307 0 0
412       524559       340608            0 308 309 0
415      -392359            0       340608 310 0 0
416       528348       340608            0 311 312 0
419      -405423            0       340608 313 0 0
420       555754       340608            0 314 315 0
423      -418486            0       340608 316 0 0
424       583161       340608            0 317 318 0
427      -431550            0       340608 319 0 0
428       583050       340608            0 320 321 0
431      -444613            0       340608 322 0 0
432       608743       340608            0 323 324 0
435      -457676            0       340608 325 0 0
436       589788       340608            0 326 327 0
439      -470740            0       340608 328 0 0
440       613279       340608            0 329 330 0
443      -483803            0       340608 331 0 0
444       619082       340608            0 332 333 0
447      -496866            0       340608 334 0 0
448       617098       340608            0 335 336 0
451      -509930            0       340608 337 0 0
452       674409       340608            0 338 339 0
455      -522993            0       340608 340 0 0
456       678298       340608            0 341 342 0
459      -536057            0       340608 343 0 0
460       699934       340608            0 344 345 0
463      -549120            0       340608 346 0 0
464       703069       340608            0 347 348 0
467      -562183            0       340608 349 0 0
468       706047       340608            0 350 351 0
471      -575247            0       340608 352 0 0
472       733802       340608            0 353 354 0
475      -588310            0       340608 355 0 0
476       735906       340608            0 356 357 0
479      -601373            0       340608 358 0 0
480       755482       340608            0 359 360 0
483      -614437            0       340608 361 0 0
484       757033       340608            0 362 363 0
487      -627500            0       340608 364 0 0
488       791996       340608            0 365 366 0
491      -640564            0       340608 367 0 0
492       792682       340608            0 368 369 0
495      -653627            0       340608 370 0 0
496       793337       340608            0 371 372 0
499      -666690            0       340608 373 0 0
500       793964       340608            0 374 375 0
503      -679754            0       340608 376 0 0
504       816306       340608            0 377 378 0
507      -692817            0       340608 379 0 0
508       816428       340608            0 380 381 0
511      -705880            0       340608 382 0 0
512       816546       340608            0 383 384 0
515      -718944            0       340608 385 0 0
516       847227       340608            0 386 387 0
519      -732007            0       340608 388 0 0
520       846726       340608            0 389 390 0
523      -745071            0       340608 391 0 0
524       846245       340608            0 392 393 0
527      -758134            0       340608 394 0 0
528       875724       340608            0 395 396 0
531      -771197            0       340608 397 0 0
532       874694       340608            0 398 399 0
535      -784261            0       340608 400 0 0
536       914645       340608            0 401 402 0
539      -797324            0       340608 403 0 0
540       912866       340608            0 404 405 0
543      -810387            0       340608 406 0 0
544       911155       340608            0 407 408 0
547      -823451            0       340608 409 0 0
548       939521       340608            0 410 411 0
551      -836514            0       340608 412 0 0
552       937349       340608            0 413 414 0
555      -849578            0       340608 415 0 0
556       935255       340608            0 416 417 0
559      -862641            0       340608 418 0 0
560       962589       340608            0 419 420 0
563      -875704            0       340608 421 0 0
564       943238       340608            0 422 423 0
567      -888768            0       340608 424 0 0
568       969614       340608            0 425 426 0
571      -901831            0       340608 427 0 0
572       967072       340608            0 428 429 0
575      -914894            0       340608 430 0 0
576       964616       340608            0 431 432 0
579      -927958            0       340608 433 0 0
580   1.0013e+06       340608            0 434 435 0
583      -941021            0       340608 436 0 0
584       998260       340608            0 437 438 0
587      -954085            0       340608 439 0 0
588  1.02374e+06       340608            0 440 441 0
591      -967148            0       340608 442 0 0
592  1.02038e+06       340608            0 443 444 0
595      -980211            0       340608 445 0 0
596   1.0283e+06       340608            0 446 447 0
599      -993275            0       340608 448 0 0
600  1.02498e+06       340608            0 449 450 0
603 -1.00634e+06            0       340608 451 0 0
604  1.06084e+06       340608            0 452 453 0
607  -1.0194e+06            0       340608 454 0 0
608  1.05699e+06       340608            0 455 456 0
611 -1.03246e+06            0       340608 457 0 0
612  1.05326e+06       340608            0 458 459 0
615 -1.04553e+06            0       340608 460 0 0
616   1.0603e+06       340608            0 461 462 0
619 -1.05859e+06            0       340608 463 0 0
620  1.05663e+06       340608            0 464 465 0
623 -1.07166e+06            0       340608 466 0 0
624  1.09131e+06       340608            0 467 468 0
627 -1.08472e+06            0       340608 469 0 0
628  1.08717e+06       340608            0 470 471 0
631 -1.09778e+06            0       340608 472 0 0
632   1.1103e+06       340608            0 473 474 0
635 -1.11085e+06            0       340608 475 0 0
636  1.08943e+06       340608            0 476 477 0
639 -1.12391e+06            0       340608 478 0 0
640  1.11187e+06       340608            0 479 480 0
643 -1.13697e+06            0       340608 481 0 0
644  1.11906e+06       340608            0 482 483 0
647 -1.15004e+06            0       340608 484 0 0
648  1.14149e+06       340608            0 485 486 0
651  -1.1631e+06            0       340608 487 0 0
652  1.12032e+06       340608            0 488 489 0
655 -1.17616e+06            0       340608 490 0 0
656  1.14211e+06       340608            0 491 492 0
659 -1.18923e+06            0       340608 493 0 0
660  1.14909e+06       340608            0 494 495 0
663 -1.20229e+06            0       340608 496 0 0
664  1.17088e+06       340608            0 497 498 0
667 -1.21535e+06            0       340608 499 0 0
668  1.14948e+06       340608            0 500 501 0
671 -1.22842e+06            0       340608 502 0 0
672  1.17065e+06       340608            0 503 504 0
675 -1.24148e+06            0       340608 505 0 0
676  1.17743e+06       340608            0 506 507 0
679 -1.25454e+06            0       340608 508 0 0
680  1.19861e+06       340608            0 509 510 0
683 -1.26761e+06            0       340608 511 0 0
684  1.17703e+06       340608            0 512 513 0
687 -1.28067e+06            0       340608 514 0 0
688  1.20953e+06       340608            0 515 516 0
689       980392            0            0 517 0 0
692       971480            0            0 518 0 0
695       962567            0            0 519 0 0
698       953654            0            0 520 0 0
701       944742            0            0 521 0 0
704       935829            0            0 522 0 0
707       926916            0            0 523 0 0
711       918004            0            0 524 0 0
715       909091            0            0 525 0 0
719       900178            0            0 526 0 0
723       891266            0            0 527 0 0
727       882353            0            0 528 0 0
731       873440            0            0 529 0 0
735       864528            0            0 530 0 0
739       855615            0            0 531 0 0
743       846702            0            0 532 0 0
747       837790            0            0 533 0 0
751       828877            0            0 534 0 0
755       819964            0            0 535 0 0
759       811052            0            0 536 0 0
763       802139            0            0 537 0 0
767       793226            0            0 538 0 0
771       784314            0            0 539 0 0
