# Pulseq sequence file
# Created by MATLAB mr toolbox

[VERSION]
major 1
minor 5
revision 1

[DEFINITIONS]
AdcRasterTime 1e-07 
BlockDurationRaster 1e-05 
FOV 0.192 0.256 0.256 
FlipAngle 7 
GradientRasterTime 1e-05 
NParts 5 
Nacs 32 
Name gre_witness_merged_calib_192x256x256_Nxos1024_Ncalib72x1_Nacs32_Ndummy300_Nsettle10_os4_amp8_cycles10_SAG_prisma 
Ncalib1 72 
Ncalib2 1 
Ndummy 300 
NsettlePerPart 10 
Nx 192 
Nx_os 1024 
Ny 256 
Nz 256 
OrientationMapping SAG 
Part0_IsACS 0 
Part0_KyPhysStart0 92 
Part0_KyPhysStop0 163 
Part0_KzPhysStart0 96 
Part0_KzPhysStop0 96 
Part0_Mode nowave 
Part0_NLinLocal 72 
Part0_NParLocal 1 
Part0_Name nowave_kywide_kznarrow 
Part0_SetID 0 
Part1_IsACS 0 
Part1_KyPhysStart0 92 
Part1_KyPhysStop0 163 
Part1_KzPhysStart0 96 
Part1_KzPhysStop0 96 
Part1_Mode sin 
Part1_NLinLocal 72 
Part1_NParLocal 1 
Part1_Name sin_kywide_kznarrow 
Part1_SetID 1 
Part2_IsACS 0 
Part2_KyPhysStart0 128 
Part2_KyPhysStop0 128 
Part2_KzPhysStart0 60 
Part2_KzPhysStop0 131 
Part2_Mode nowave 
Part2_NLinLocal 1 
Part2_NParLocal 72 
Part2_Name nowave_kzwide_kynarrow 
Part2_SetID 2 
Part3_IsACS 0 
Part3_KyPhysStart0 128 
Part3_KyPhysStop0 128 
Part3_KzPhysStart0 60 
Part3_KzPhysStop0 131 
Part3_Mode cos 
Part3_NLinLocal 1 
Part3_NParLocal 72 
Part3_Name cos_kzwide_kynarrow 
Part3_SetID 3 
Part4_IsACS 1 
Part4_KyPhysStart0 112 
Part4_KyPhysStop0 143 
Part4_KzPhysStart0 80 
Part4_KzPhysStop0 111 
Part4_Mode nowave 
Part4_NLinLocal 32 
Part4_NParLocal 32 
Part4_Name acs_nowave_center 
Part4_SetID 4 
RadiofrequencyRasterTime 1e-06 
ReadoutOversamplingFactor 4 
ReceiverGainHigh 1 
SliceThickness 0.001 
TE 0.0035325 
TR 0.00744 
TotalDuration 12.36656 
ro_os 4 

# Format of blocks:
# NUM DUR RF  GX  GY  GZ  ADC  EXT
[BLOCKS]
   1 148   1   0   0   0  0  0
   2 596   0 401 1234 1661  0  0
   3 148   2 402 1235 1660  0  0
   4 596   0 405 1234 1661  0  0
   5 148   3 406 1235 1660  0  0
   6 596   0 409 1234 1661  0  0
   7 148   4 410 1235 1660  0  0
   8 596   0 413 1234 1661  0  0
   9 148   5 414 1235 1660  0  0
  10 596   0 417 1234 1661  0  0
  11 148   6 418 1235 1660  0  0
  12 596   0 421 1234 1661  0  0
  13 148   7 422 1235 1660  0  0
  14 596   0 425 1234 1661  0  0
  15 148   8 426 1235 1660  0  0
  16 596   0 429 1234 1661  0  0
  17 148   1 430 1235 1660  0  0
  18 596   0 433 1234 1661  0  0
  19 148   9 434 1235 1660  0  0
  20 596   0 437 1234 1661  0  0
  21 148  10 438 1235 1660  0  0
  22 596   0 441 1234 1661  0  0
  23 148  11 442 1235 1660  0  0
  24 596   0 445 1234 1661  0  0
  25 148   4 446 1235 1660  0  0
  26 596   0 321 1238 1661  0  0
  27 148  10 322 1239 1660  0  0
  28 596   0 325 1238 1661  0  0
  29 148  12 326 1239 1660  0  0
  30 596   0 329 1238 1661  0  0
  31 148  13 330 1239 1660  0  0
  32 596   0 333 1238 1661  0  0
  33 148   8 334 1239 1660  0  0
  34 596   0 337 1238 1661  0  0
  35 148   9 338 1239 1660  0  0
  36 596   0 341 1238 1661  0  0
  37 148  14 342 1239 1660  0  0
  38 596   0 345 1238 1661  0  0
  39 148   5 346 1239 1660  0  0
  40 596   0 349 1238 1661  0  0
  41 148  11 350 1239 1660  0  0
  42 596   0 353 1238 1661  0  0
  43 148   6 354 1239 1660  0  0
  44 596   0 357 1238 1661  0  0
  45 148   2 358 1239 1660  0  0
  46 596   0 361 1238 1661  0  0
  47 148  15 362 1239 1660  0  0
  48 596   0 365 1238 1661  0  0
  49 148  13 366 1239 1660  0  0
  50 596   0 369 1238 1661  0  0
  51 148   2 370 1239 1660  0  0
  52 596   0 373 1238 1661  0  0
  53 148  14 374 1239 1660  0  0
  54 596   0 377 1238 1661  0  0
  55 148  16 378 1239 1660  0  0
  56 596   0 381 1238 1661  0  0
  57 148   5 382 1239 1660  0  0
  58 596   0 385 1238 1661  0  0
  59 148   3 386 1239 1660  0  0
  60 596   0 389 1238 1661  0  0
  61 148  12 390 1239 1660  0  0
  62 596   0 393 1238 1661  0  0
  63 148   8 394 1239 1660  0  0
  64 596   0 397 1238 1661  0  0
  65 148  15 398 1239 1660  0  0
  66 596   0 401 1238 1661  0  0
  67 148   7 402 1239 1660  0  0
  68 596   0 405 1238 1661  0  0
  69 148  10 406 1239 1660  0  0
  70 596   0 409 1238 1661  0  0
  71 148  16 410 1239 1660  0  0
  72 596   0 413 1238 1661  0  0
  73 148  16 414 1239 1660  0  0
  74 596   0 417 1238 1661  0  0
  75 148  10 418 1239 1660  0  0
  76 596   0 421 1238 1661  0  0
  77 148   7 422 1239 1660  0  0
  78 596   0 425 1238 1661  0  0
  79 148  15 426 1239 1660  0  0
  80 596   0 429 1238 1661  0  0
  81 148   8 430 1239 1660  0  0
  82 596   0 433 1238 1661  0  0
  83 148  12 434 1239 1660  0  0
  84 596   0 437 1238 1661  0  0
  85 148   3 438 1239 1660  0  0
  86 596   0 441 1238 1661  0  0
  87 148   5 442 1239 1660  0  0
  88 596   0 445 1238 1661  0  0
  89 148  16 446 1239 1660  0  0
  90 596   0 321 409 1661  0  0
  91 148  14 322 410 1660  0  0
  92 596   0 325 409 1661  0  0
  93 148   2 326 410 1660  0  0
  94 596   0 329 409 1661  0  0
  95 148  13 330 410 1660  0  0
  96 596   0 333 409 1661  0  0
  97 148  15 334 410 1660  0  0
  98 596   0 337 409 1661  0  0
  99 148   2 338 410 1660  0  0
 100 596   0 341 409 1661  0  0
 101 148   6 342 410 1660  0  0
 102 596   0 345 409 1661  0  0
 103 148  11 346 410 1660  0  0
 104 596   0 349 409 1661  0  0
 105 148   5 350 410 1660  0  0
 106 596   0 353 409 1661  0  0
 107 148  14 354 410 1660  0  0
 108 596   0 357 409 1661  0  0
 109 148   9 358 410 1660  0  0
 110 596   0 361 409 1661  0  0
 111 148   8 362 410 1660  0  0
 112 596   0 365 409 1661  0  0
 113 148  13 366 410 1660  0  0
 114 596   0 369 409 1661  0  0
 115 148  12 370 410 1660  0  0
 116 596   0 373 409 1661  0  0
 117 148  10 374 410 1660  0  0
 118 596   0 377 409 1661  0  0
 119 148   4 378 410 1660  0  0
 120 596   0 381 409 1661  0  0
 121 148  11 382 410 1660  0  0
 122 596   0 385 409 1661  0  0
 123 148  10 386 410 1660  0  0
 124 596   0 389 409 1661  0  0
 125 148   9 390 410 1660  0  0
 126 596   0 393 409 1661  0  0
 127 148   1 394 410 1660  0  0
 128 596   0 397 409 1661  0  0
 129 148   8 398 410 1660  0  0
 130 596   0 401 409 1661  0  0
 131 148   7 402 410 1660  0  0
 132 596   0 405 409 1661  0  0
 133 148   6 406 410 1660  0  0
 134 596   0 409 409 1661  0  0
 135 148   5 410 410 1660  0  0
 136 596   0 413 409 1661  0  0
 137 148   4 414 410 1660  0  0
 138 596   0 417 409 1661  0  0
 139 148   3 418 410 1660  0  0
 140 596   0 421 409 1661  0  0
 141 148   2 422 410 1660  0  0
 142 596   0 425 409 1661  0  0
 143 148   1 426 410 1660  0  0
 144 596   0 429 409 1661  0  0
 145 148   1 430 410 1660  0  0
 146 596   0 433 409 1661  0  0
 147 148   2 434 410 1660  0  0
 148 596   0 437 409 1661  0  0
 149 148   3 438 410 1660  0  0
 150 596   0 441 409 1661  0  0
 151 148   4 442 410 1660  0  0
 152 596   0 445 409 1661  0  0
 153 148   5 446 410 1660  0  0
 154 596   0 321 1244 1661  0  0
 155 148   6 322 1245 1660  0  0
 156 596   0 325 1244 1661  0  0
 157 148   7 326 1245 1660  0  0
 158 596   0 329 1244 1661  0  0
 159 148   8 330 1245 1660  0  0
 160 596   0 333 1244 1661  0  0
 161 148   1 334 1245 1660  0  0
 162 596   0 337 1244 1661  0  0
 163 148   9 338 1245 1660  0  0
 164 596   0 341 1244 1661  0  0
 165 148  10 342 1245 1660  0  0
 166 596   0 345 1244 1661  0  0
 167 148  11 346 1245 1660  0  0
 168 596   0 349 1244 1661  0  0
 169 148   4 350 1245 1660  0  0
 170 596   0 353 1244 1661  0  0
 171 148  10 354 1245 1660  0  0
 172 596   0 357 1244 1661  0  0
 173 148  12 358 1245 1660  0  0
 174 596   0 361 1244 1661  0  0
 175 148  13 362 1245 1660  0  0
 176 596   0 365 1244 1661  0  0
 177 148   8 366 1245 1660  0  0
 178 596   0 369 1244 1661  0  0
 179 148   9 370 1245 1660  0  0
 180 596   0 373 1244 1661  0  0
 181 148  14 374 1245 1660  0  0
 182 596   0 377 1244 1661  0  0
 183 148   5 378 1245 1660  0  0
 184 596   0 381 1244 1661  0  0
 185 148  11 382 1245 1660  0  0
 186 596   0 385 1244 1661  0  0
 187 148   6 386 1245 1660  0  0
 188 596   0 389 1244 1661  0  0
 189 148   2 390 1245 1660  0  0
 190 596   0 393 1244 1661  0  0
 191 148  15 394 1245 1660  0  0
 192 596   0 397 1244 1661  0  0
 193 148  13 398 1245 1660  0  0
 194 596   0 401 1244 1661  0  0
 195 148   2 402 1245 1660  0  0
 196 596   0 405 1244 1661  0  0
 197 148  14 406 1245 1660  0  0
 198 596   0 409 1244 1661  0  0
 199 148  16 410 1245 1660  0  0
 200 596   0 413 1244 1661  0  0
 201 148   5 414 1245 1660  0  0
 202 596   0 417 1244 1661  0  0
 203 148   3 418 1245 1660  0  0
 204 596   0 421 1244 1661  0  0
 205 148  12 422 1245 1660  0  0
 206 596   0 425 1244 1661  0  0
 207 148   8 426 1245 1660  0  0
 208 596   0 429 1244 1661  0  0
 209 148  15 430 1245 1660  0  0
 210 596   0 433 1244 1661  0  0
 211 148   7 434 1245 1660  0  0
 212 596   0 437 1244 1661  0  0
 213 148  10 438 1245 1660  0  0
 214 596   0 441 1244 1661  0  0
 215 148  16 442 1245 1660  0  0
 216 596   0 445 1244 1661  0  0
 217 148  16 446 1245 1660  0  0
 218 596   0 321 1248 1661  0  0
 219 148  10 322 1249 1660  0  0
 220 596   0 325 1248 1661  0  0
 221 148   7 326 1249 1660  0  0
 222 596   0 329 1248 1661  0  0
 223 148  15 330 1249 1660  0  0
 224 596   0 333 1248 1661  0  0
 225 148   8 334 1249 1660  0  0
 226 596   0 337 1248 1661  0  0
 227 148  12 338 1249 1660  0  0
 228 596   0 341 1248 1661  0  0
 229 148   3 342 1249 1660  0  0
 230 596   0 345 1248 1661  0  0
 231 148   5 346 1249 1660  0  0
 232 596   0 349 1248 1661  0  0
 233 148  16 350 1249 1660  0  0
 234 596   0 353 1248 1661  0  0
 235 148  14 354 1249 1660  0  0
 236 596   0 357 1248 1661  0  0
 237 148   2 358 1249 1660  0  0
 238 596   0 361 1248 1661  0  0
 239 148  13 362 1249 1660  0  0
 240 596   0 365 1248 1661  0  0
 241 148  15 366 1249 1660  0  0
 242 596   0 369 1248 1661  0  0
 243 148   2 370 1249 1660  0  0
 244 596   0 373 1248 1661  0  0
 245 148   6 374 1249 1660  0  0
 246 596   0 377 1248 1661  0  0
 247 148  11 378 1249 1660  0  0
 248 596   0 381 1248 1661  0  0
 249 148   5 382 1249 1660  0  0
 250 596   0 385 1248 1661  0  0
 251 148  14 386 1249 1660  0  0
[RF]
1      194.444 832 833 834 50 1280 0 0 0 0 e
2      194.444 832 833 834 50 1280 0 0 0 0.872665 e
3      194.444 832 833 834 50 1280 0 0 0 2.61799 e
4      194.444 832 833 834 50 1280 0 0 0 5.23599 e
5      194.444 832 833 834 50 1280 0 0 0 2.44346 e
6      194.444 832 833 834 50 1280 0 0 0 0.523599 e
7      194.444 832 833 834 50 1280 0 0 0 5.75959 e
8      194.444 832 833 834 50 1280 0 0 0 5.58505 e
9      194.444 832 833 834 50 1280 0 0 0 1.5708 e
10      194.444 832 833 834 50 1280 0 0 0 4.01426 e
11      194.444 832 833 834 50 1280 0 0 0 1.0472 e
12      194.444 832 833 834 50 1280 0 0 0 3.66519 e
13      194.444 832 833 834 50 1280 0 0 0 4.18879 e
14      194.444 832 833 834 50 1280 0 0 0 4.71239 e
15      194.444 832 833 834 50 1280 0 0 0 2.0944 e
16      194.444 832 833 834 50 1280 0 0 0 3.14159 e

# Format of arbitrary gradients:
#   time_shape_id of 0 means default timing (stepping with grad_raster starting at 1/2 of grad_raster)
# id amplitude first last amp_shape_id time_shape_id delay
# ..      Hz/m  Hz/m Hz/m        ..         ..          us
[GRADIENTS]
3  1.03852e+06            0       340608 1 0 0
4   1.3098e+06       340608            0 2 3 0
7  1.02597e+06            0       340608 4 0 0
8  1.29823e+06       340608            0 5 3 0
11  1.01342e+06            0       340608 6 0 0
12  1.30111e+06       340608            0 7 8 0
15  1.00087e+06            0       340608 9 0 0
16  1.30406e+06       340608            0 10 11 0
19       988322            0       340608 12 0 0
20  1.27387e+06       340608            0 13 14 0
23       975774            0       340608 15 0 0
24  1.27651e+06       340608            0 16 17 0
27       963225            0       340608 18 0 0
28  1.26467e+06       340608            0 19 17 0
31       950677            0       340608 20 0 0
32  1.26724e+06       340608            0 21 22 0
35       938129            0       340608 23 0 0
36  1.26986e+06       340608            0 24 25 0
39       925580            0       340608 26 0 0
40  1.23938e+06       340608            0 27 28 0
43       913032            0       340608 29 0 0
44  1.24167e+06       340608            0 30 31 0
47       900484            0       340608 32 0 0
48  1.24403e+06       340608            0 33 34 0
51       887935            0       340608 35 0 0
52  1.23177e+06       340608            0 36 34 0
55       875387            0       340608 37 0 0
56  1.23404e+06       340608            0 38 39 0
59       862838            0       340608 40 0 0
60  1.20326e+06       340608            0 41 42 0
63       850290            0       340608 43 0 0
64  1.20518e+06       340608            0 44 45 0
67       837742            0       340608 46 0 0
68  1.20715e+06       340608            0 47 48 0
71       825193            0       340608 49 0 0
72  1.20917e+06       340608            0 50 51 0
75       812645            0       340608 52 0 0
76  1.19646e+06       340608            0 53 51 0
79       800097            0       340608 54 0 0
80   1.1654e+06       340608            0 55 56 0
83       787548            0       340608 57 0 0
84   1.1669e+06       340608            0 58 59 0
87       775000            0       340608 60 0 0
88  1.16845e+06       340608            0 61 62 0
91       762452            0       340608 63 0 0
92  1.17004e+06       340608            0 64 65 0
95       749903            0       340608 66 0 0
96  1.13853e+06       340608            0 67 68 0
99       737355            0       340608 69 0 0
100  1.13974e+06       340608            0 70 71 0
103       724807            0       340608 72 0 0
104  1.14098e+06       340608            0 73 74 0
107       712258            0       340608 75 0 0
108  1.14225e+06       340608            0 76 77 0
111       699710            0       340608 78 0 0
112   1.1289e+06       340608            0 79 77 0
115       687162            0       340608 80 0 0
116  1.09711e+06       340608            0 81 82 0
119       674613            0       340608 83 0 0
120  1.09782e+06       340608            0 84 85 0
123       662065            0       340608 86 0 0
124  1.09855e+06       340608            0 87 88 0
127       649517            0       340608 89 0 0
128   1.0993e+06       340608            0 90 91 0
131       636968            0       340608 92 0 0
132  1.06707e+06       340608            0 93 94 0
135       624420            0       340608 95 0 0
136   1.0674e+06       340608            0 96 97 0
139       611872            0       340608 98 0 0
140  1.06775e+06       340608            0 99 100 0
143       599323            0       340608 101 0 0
144   1.0681e+06       340608            0 102 103 0
147       586775            0       340608 104 0 0
148  1.03543e+06       340608            0 105 106 0
151       574227            0       340608 107 0 0
152  1.03534e+06       340608            0 108 109 0
155       561678            0       340608 110 0 0
156  1.03526e+06       340608            0 111 112 0
159       549130            0       340608 113 0 0
160  1.03517e+06       340608            0 114 115 0
163       536582            0       340608 116 0 0
164  1.00205e+06       340608            0 117 118 0
167       524033            0       340608 119 0 0
168   1.0015e+06       340608            0 120 121 0
171       511485            0       340608 122 0 0
172  1.00094e+06       340608            0 123 124 0
175       498937            0       340608 125 0 0
176  1.00035e+06       340608            0 126 127 0
179       486388            0       340608 128 0 0
180       966796       340608            0 129 130 0
183       473840            0       340608 131 0 0
184       965726       340608            0 132 133 0
187       461292            0       340608 134 0 0
188       964626       340608            0 135 136 0
191       448743            0       340608 137 0 0
192       963493       340608            0 138 139 0
195       436195            0       340608 140 0 0
196       929496       340608            0 141 142 0
199       423647            0       340608 143 0 0
200       927847       340608            0 144 145 0
203       411098            0       340608 146 0 0
204       940180       340608            0 147 148 0
207       398550            0       340608 149 0 0
208       905517       340608            0 150 151 0
211       386002            0       340608 152 0 0
212       903454       340608            0 153 154 0
215       373453            0       340608 155 0 0
216       901328       340608            0 156 157 0
219       360905            0       340608 158 0 0
220       899135       340608            0 159 160 0
223       348357            0       340608 161 0 0
224       864036       340608            0 162 163 0
227       340608            0       340608 164 0 0
228       861261       340608            0 165 166 0
231       340608            0       340608 167 0 0
232       872242       340608            0 168 169 0
235       340608            0       340608 170 0 0
236       836456       340608            0 171 172 0
239       340608            0       340608 173 0 0
240       833146       340608            0 174 175 0
243       340608            0       340608 176 0 0
244       829728       340608            0 177 178 0
247       340608            0       340608 179 0 0
248       826196       340608            0 180 181 0
251       340608            0       340608 182 0 0
252       803158       340608            0 183 184 0
255       340608            0       340608 185 0 0
256       799115       340608            0 186 187 0
259       340608            0       340608 188 0 0
260       794933       340608            0 189 190 0
263       340608            0       340608 191 0 0
264       771101       340608            0 192 193 0
267       340608            0       340608 194 0 0
268       766354       340608            0 195 196 0
271       340608            0       340608 197 0 0
272       761438       340608            0 198 199 0
275       340608            0       340608 200 0 0
276       736754       340608            0 201 202 0
279       340608            0       340608 203 0 0
280       731211       340608            0 204 205 0
283       340608            0       340608 206 0 0
284       725461       340608            0 207 208 0
287       340608            0       340608 209 0 0
288       699864       340608            0 210 211 0
291       340608            0       340608 212 0 0
292       693415       340608            0 213 214 0
295       340608            0       340608 215 0 0
296       667334       340608            0 216 217 0
299       340608            0       340608 218 0 0
300       660135       340608            0 219 220 0
303       340608            0       340608 221 0 0
304       665707       340608            0 222 223 0
307       340608            0       340608 224 0 0
308       625551       340608            0 225 226 0
311       340608            0       340608 227 0 0
312       629825       340608            0 228 229 0
315       340608            0       340608 230 0 0
316       601615       340608            0 231 232 0
319       340608            0       340608 233 0 0
320       592448       340608            0 234 235 0
323       340608            0       340608 236 0 0
324       595561       340608            0 237 238 0
327       340608            0       340608 239 0 0
328       565512       340608            0 240 241 0
331       340608            0       340608 242 0 0
332       567543       340608            0 243 244 0
335      -340608            0       340608 245 0 0
336       524213       340608            0 246 247 0
339      -340608            0       340608 248 0 0
340       524371       340608            0 249 250 0
343      -340608            0       340608 251 0 0
344       492225       340608            0 252 253 0
347      -340608            0       340608 254 0 0
348       490829       340608            0 255 256 0
351      -340608            0       340608 257 0 0
352       468543       340608            0 258 259 0
355      -340608            0       340608 260 0 0
356       465791       340608            0 261 262 0
359      -340608            0       340608 263 0 0
360       429415       340608            0 264 265 0
363      -340608            0       340608 266 0 0
364       424336       340608            0 267 268 0
367      -340608            0       340608 269 0 0
368       396967       340608            0 270 271 0
371      -340608            0       340608 272 0 0
372       357473       340608            0 273 274 0
375      -340608            0       340608 275 0 0
376       358434       340608            0 276 277 0
379      -340608            0       340608 278 0 0
380       340608       340608            0 279 280 0
383      -340608            0       340608 281 0 0
384       340608       340608            0 282 283 0
387      -340608            0       340608 284 0 0
388       340608       340608            0 285 286 0
391      -340608            0       340608 287 0 0
392       340608       340608            0 288 289 0
395      -340608            0       340608 290 0 0
396       340608       340608            0 291 292 0
399      -340608            0       340608 293 0 0
400       340608       340608            0 294 295 0
403      -340608            0       340608 296 0 0
404       340608       340608            0 297 298 0
407      -340608            0       340608 299 0 0
408       340608       340608            0 300 301 0
411      -340608            0       340608 302 0 0
412       340608       340608            0 303 304 0
415      -340608            0       340608 305 0 0
416       362694       340608            0 306 307 0
419      -340608            0       340608 308 0 0
420       403749       340608            0 309 310 0
423      -340608            0       340608 311 0 0
424       361131       340608            0 312 313 0
427      -340608            0       340608 314 0 0
428       398938       340608            0 315 316 0
431      -340608            0       340608 317 0 0
432       432766       340608            0 318 319 0
435      -340608            0       340608 320 0 0
436       436583       340608            0 321 322 0
439      -340608            0       340608 323 0 0
440       468450       340608            0 324 325 0
443      -345955            0       340608 326 0 0
444       500316       340608            0 327 328 0
447      -358504            0       340608 329 0 0
448       502026       340608            0 330 331 0
451      -371052            0       340608 332 0 0
452       503472       340608            0 333 334 0
455      -383600            0       340608 335 0 0
456       538029       340608            0 336 337 0
459      -396149            0       340608 338 0 0
460       536756       340608            0 339 340 0
463      -408697            0       340608 341 0 0
464       535657       340608            0 342 343 0
467      -421245            0       340608 344 0 0
468       604155       340608            0 345 346 0
471      -433794            0       340608 347 0 0
472       629193       340608            0 348 349 0
475      -446342            0       340608 350 0 0
476       631671       340608            0 351 352 0
479      -458890            0       340608 353 0 0
480       633984       340608            0 354 355 0
483      -471439            0       340608 356 0 0
484       636148       340608            0 357 358 0
487      -483987            0       340608 359 0 0
488       670108       340608            0 360 361 0
491      -496535            0       340608 362 0 0
492       671046       340608            0 363 364 0
495      -509084            0       340608 365 0 0
496       671929       340608            0 366 367 0
499      -521632            0       340608 368 0 0
500       672761       340608            0 369 370 0
503      -534180            0       340608 371 0 0
504       733203       340608            0 372 373 0
507      -546729            0       340608 374 0 0
508       732285       340608            0 375 376 0
511      -559277            0       340608 377 0 0
512       731417       340608            0 378 379 0
515      -571825            0       340608 380 0 0
516       769814       340608            0 381 382 0
519      -584374            0       340608 383 0 0
520       767956       340608            0 384 385 0
523      -596922            0       340608 386 0 0
524       766195       340608            0 387 388 0
527      -609470            0       340608 389 0 0
528       802571       340608            0 390 391 0
531      -622019            0       340608 392 0 0
532       799968       340608            0 393 394 0
535      -634567            0       340608 395 0 0
536       797495       340608            0 396 397 0
539      -647115            0       340608 398 0 0
540       832052       340608            0 399 400 0
543      -659664            0       340608 401 0 0
544       809122       340608            0 402 403 0
547      -672212            0       340608 404 0 0
548       842034       340608            0 405 406 0
551      -684760            0       340608 407 0 0
552       838755       340608            0 408 409 0
555      -697309            0       340608 410 0 0
556       835626       340608            0 411 412 0
559      -709857            0       340608 413 0 0
560       867041       340608            0 414 415 0
563      -722405            0       340608 416 0 0
564       875233       340608            0 417 418 0
567      -734954            0       340608 419 0 0
568       906649       340608            0 420 421 0
571      -747502            0       340608 422 0 0
572       902080       340608            0 423 424 0
575      -760050            0       340608 425 0 0
576       897710       340608            0 426 427 0
579      -772599            0       340608 428 0 0
580       908020       340608            0 429 430 0
583      -785147            0       340608 431 0 0
584       903708       340608            0 432 433 0
587      -797695            0       340608 434 0 0
588       932505       340608            0 435 436 0
591      -810244            0       340608 437 0 0
592       940015       340608            0 438 439 0
595      -822792            0       340608 440 0 0
596       968812       340608            0 441 442 0
599      -835340            0       340608 443 0 0
600       944081       340608            0 444 445 0
603      -847889            0       340608 446 0 0
604       971726       340608            0 447 448 0
607      -860437            0       340608 449 0 0
608       966419       340608            0 450 451 0
611      -872985            0       340608 452 0 0
612  1.00658e+06       340608            0 453 454 0
615      -885534            0       340608 455 0 0
616  1.00059e+06       340608            0 456 457 0
619      -898082            0       340608 458 0 0
620  1.00793e+06       340608            0 459 460 0
623      -910630            0       340608 461 0 0
624  1.00214e+06       340608            0 462 463 0
627      -923179            0       340608 464 0 0
628  1.04144e+06       340608            0 465 466 0
631      -935727            0       340608 467 0 0
632  1.03502e+06       340608            0 468 469 0
635      -948275            0       340608 470 0 0
636  1.04145e+06       340608            0 471 472 0
639      -960824            0       340608 473 0 0
640  1.03526e+06       340608            0 474 475 0
643      -973372            0       340608 476 0 0
644  1.07373e+06       340608            0 477 478 0
647      -985920            0       340608 479 0 0
648  1.06695e+06       340608            0 480 481 0
651      -998469            0       340608 482 0 0
652  1.07258e+06       340608            0 483 484 0
655 -1.01102e+06            0       340608 485 0 0
656  1.07902e+06       340608            0 486 487 0
659 -1.02357e+06            0       340608 488 0 0
660   1.1037e+06       340608            0 489 490 0
663 -1.03611e+06            0       340608 491 0 0
664  1.07773e+06       340608            0 492 493 0
667 -1.04866e+06            0       340608 494 0 0
668  1.10156e+06       340608            0 495 496 0
671 -1.06121e+06            0       340608 497 0 0
672  1.10778e+06       340608            0 498 499 0
675 -1.07376e+06            0       340608 500 0 0
676  1.11243e+06       340608            0 501 502 0
679 -1.08631e+06            0       340608 503 0 0
680  1.10557e+06       340608            0 504 505 0
683 -1.09886e+06            0       340608 506 0 0
684  1.14197e+06       340608            0 507 508 0
687  -1.1114e+06            0       340608 509 0 0
688  1.14597e+06       340608            0 510 511 0
691 -1.12395e+06            0       340608 512 0 0
692  1.13868e+06       340608            0 513 514 0
695  -1.1365e+06            0       340608 515 0 0
696  1.17502e+06       340608            0 516 517 0
699 -1.14905e+06            0       340608 518 0 0
700  1.16725e+06       340608            0 519 520 0
703  -1.1616e+06            0       340608 521 0 0
704  1.17072e+06       340608            0 522 523 0
707 -1.17415e+06            0       340608 524 0 0
708  1.17653e+06       340608            0 525 526 0
711 -1.18669e+06            0       340608 527 0 0
712  1.17979e+06       340608            0 528 529 0
715 -1.19924e+06            0       340608 530 0 0
716  1.17231e+06       340608            0 531 532 0
719 -1.21179e+06            0       340608 533 0 0
720  1.20746e+06       340608            0 534 535 0
723 -1.22434e+06            0       340608 536 0 0
724  1.21019e+06       340608            0 537 538 0
727 -1.23689e+06            0       340608 539 0 0
728  1.20236e+06       340608            0 540 541 0
731 -1.24944e+06            0       340608 542 0 0
732  1.23742e+06       340608            0 543 544 0
