# Pulseq sequence file
# Created by MATLAB mr toolbox

[VERSION]
major 1
minor 5
revision 1

[DEFINITIONS]
ACS_Pairs 0 
AdcRasterTime 1e-07 
BlockDurationRaster 1e-05 
ETL_Blocks_IMG 43 
ETL_CenterSlot 96 
ETL_DummySlots_IMG 96 
ETL_Efficiency_IMG 1 
ETL_FillerPerKy_IMG 0 
ETL_Mode_IMG segmented 
ETL_RealSlots_IMG 8160 
ETL_SegLen_IMG 96 
ETL_SegmentsPerBlock_IMG 2 
ETL_SegmentsPerKy_IMG 1 
ETL_Target 192 
FOV 0.192 0.256 0.256 
FlipAngle 7 
GradientRasterTime 1e-05 
Name mprage_3d_wave_sin_cos_192x256x256_res1x1x1mm_ETL192_segmented_R1_2_R2_3_ACS1_0_ACS2_0_os4_amp8_cycles10_SAG_prisma 
Nx 192 
Ny 256 
Nz 256 
OrientationMapping SAG 
PE1_ACS 0 
PE1_ACSTargetLines 0 
PE1_ImgLines 96 
PE1_R 2 
PE2_ACS 0 
PE2_ACSTargetLines 0 
PE2_ImgLines 85 
PE2_R 3 
PhaseResolution 1 
RadiofrequencyRasterTime 1e-06 
ReadoutOversamplingFactor 4 
ReceiverGainHigh 1 
RequestedResolutionX_mm 1 
RequestedResolutionY_mm 1 
RequestedResolutionZ_mm 1 
ResolutionX_mm 1 
ResolutionY_mm 1 
ResolutionZ_mm 1 
SliceThickness 0.001 
TR 2.5 
TotalDuration 107.5 
kSpaceCenterLine 128 
kSpaceCenterPartition 96 
ro_os 4 

# Format of blocks:
# NUM DUR RF  GX  GY  GZ  ADC  EXT
[BLOCKS]
    1 1044   2   0   0   0  0  0
    2 37921   0   0 897   0  0  0
    3 148   1   0   0   0  0  0
    4 596   0   1 389 899  1  5
    5 148   3   2 390 898  0  0
    6 596   0   1 395 899  2  7
    7 148   4   2 396 898  0  0
    8 596   0   5 389 899  3 10
    9 148   5   6 390 898  0  0
   10 596   0   5 395 899  4 13
   11 148   6   6 396 898  0  0
   12 596   0   9 389 899  5 14
   13 148   7  10 390 898  0  0
   14 596   0   9 395 899  6 15
   15 148   8  10 396 898  0  0
   16 596   0  13 389 899  7 16
   17 148   9  14 390 898  0  0
   18 596   0  13 395 899  8 17
   19 148   1  14 396 898  0  0
   20 596   0  17 389 899  1 18
   21 148  10  18 390 898  0  0
   22 596   0  17 395 899  9 19
   23 148  11  18 396 898  0  0
   24 596   0  21 389 899 10 20
   25 148  12  22 390 898  0  0
   26 596   0  21 395 899 11 21
   27 148   5  22 396 898  0  0
   28 596   0  25 389 899  4 22
   29 148  11  26 390 898  0  0
   30 596   0  25 395 899 10 23
   31 148  13  26 396 898  0  0
   32 596   0  29 389 899 12 24
   33 148  14  30 390 898  0  0
   34 596   0  29 395 899 13 25
   35 148   9  30 396 898  0  0
   36 596   0  33 389 899  8 26
   37 148  10  34 390 898  0  0
   38 596   0  33 395 899  9 27
   39 148  15  34 396 898  0  0
   40 596   0  37 389 899 14 28
   41 148   6  38 390 898  0  0
   42 596   0  37 395 899  5 29
   43 148  12  38 396 898  0  0
   44 596   0  41 389 899 11 30
   45 148   7  42 390 898  0  0
   46 596   0  41 395 899  6 31
   47 148   3  42 396 898  0  0
   48 596   0  45 389 899  2 32
   49 148  16  46 390 898  0  0
   50 596   0  45 395 899 15 33
   51 148  14  46 396 898  0  0
   52 596   0  49 389 899 13 34
   53 148   3  50 390 898  0  0
   54 596   0  49 395 899  2 35
   55 148  15  50 396 898  0  0
   56 596   0  53 389 899 14 36
   57 148  17  54 390 898  0  0
   58 596   0  53 395 899 16 37
   59 148   6  54 396 898  0  0
   60 596   0  57 389 899  5 38
   61 148   4  58 390 898  0  0
   62 596   0  57 395 899  3 39
   63 148  13  58 396 898  0  0
   64 596   0  61 389 899 12 40
   65 148   9  62 390 898  0  0
   66 596   0  61 395 899  8 41
   67 148  16  62 396 898  0  0
   68 596   0  65 389 899 15 42
   69 148   8  66 390 898  0  0
   70 596   0  65 395 899  7 43
   71 148  11  66 396 898  0  0
   72 596   0  69 389 899 10 44
   73 148  17  70 390 898  0  0
   74 596   0  69 395 899 16 45
   75 148  17  70 396 898  0  0
   76 596   0  73 389 899 16 46
   77 148  11  74 390 898  0  0
   78 596   0  73 395 899 10 47
   79 148   8  74 396 898  0  0
   80 596   0  77 389 899  7 48
   81 148  16  78 390 898  0  0
   82 596   0  77 395 899 15 49
   83 148   9  78 396 898  0  0
   84 596   0  81 389 899  8 50
   85 148  13  82 390 898  0  0
   86 596   0  81 395 899 12 51
   87 148   4  82 396 898  0  0
   88 596   0  85 389 899  3 52
   89 148   6  86 390 898  0  0
   90 596   0  85 395 899  5 53
   91 148  17  86 396 898  0  0
   92 596   0  89 389 899 16 54
   93 148  15  90 390 898  0  0
   94 596   0  89 395 899 14 55
   95 148   3  90 396 898  0  0
   96 596   0  93 389 899  2 56
   97 148  14  94 390 898  0  0
   98 596   0  93 395 899 13 57
   99 148  16  94 396 898  0  0
  100 596   0  97 389 899 15 58
  101 148   3  98 390 898  0  0
  102 596   0  97 395 899  2 59
  103 148   7  98 396 898  0  0
  104 596   0 101 389 899  6 60
  105 148  12 102 390 898  0  0
  106 596   0 101 395 899 11 61
  107 148   6 102 396 898  0  0
  108 596   0 105 389 899  5 62
  109 148  15 106 390 898  0  0
  110 596   0 105 395 899 14 63
  111 148  10 106 396 898  0  0
  112 596   0 109 389 899  9 64
  113 148   9 110 390 898  0  0
  114 596   0 109 395 899  8 65
  115 148  14 110 396 898  0  0
  116 596   0 113 389 899 13 66
  117 148  13 114 390 898  0  0
  118 596   0 113 395 899 12 67
  119 148  11 114 396 898  0  0
  120 596   0 117 389 899 10 68
  121 148   5 118 390 898  0  0
  122 596   0 117 395 899  4 69
  123 148  12 118 396 898  0  0
  124 596   0 121 389 899 11 70
  125 148  11 122 390 898  0  0
  126 596   0 121 395 899 10 71
  127 148  10 122 396 898  0  0
  128 596   0 125 389 899  9 72
  129 148   1 126 390 898  0  0
  130 596   0 125 395 899  1 73
  131 148   9 126 396 898  0  0
  132 596   0 129 389 899  8 74
  133 148   8 130 390 898  0  0
  134 596   0 129 395 899  7 75
  135 148   7 130 396 898  0  0
  136 596   0 133 389 899  6 76
  137 148   6 134 390 898  0  0
  138 596   0 133 395 899  5 77
  139 148   5 134 396 898  0  0
  140 596   0 137 389 899  4 78
  141 148   4 138 390 898  0  0
  142 596   0 137 395 899  3 79
  143 148   3 138 396 898  0  0
  144 596   0 141 389 899  2 80
  145 148   1 142 390 898  0  0
  146 596   0 141 395 899  1 81
  147 148   1 142 396 898  0  0
  148 596   0 145 389 899  1 82
  149 148   3 146 390 898  0  0
  150 596   0 145 395 899  2 83
  151 148   4 146 396 898  0  0
  152 596   0 149 389 899  3 84
  153 148   5 150 390 898  0  0
  154 596   0 149 395 899  4 85
  155 148   6 150 396 898  0  0
  156 596   0 153 389 899  5 86
  157 148   7 154 390 898  0  0
  158 596   0 153 395 899  6 87
  159 148   8 154 396 898  0  0
  160 596   0 157 389 899  7 88
  161 148   9 158 390 898  0  0
  162 596   0 157 395 899  8 89
  163 148   1 158 396 898  0  0
  164 596   0 161 389 899  1 90
  165 148  10 162 390 898  0  0
  166 596   0 161 395 899  9 91
  167 148  11 162 396 898  0  0
  168 596   0 165 389 899 10 92
  169 148  12 166 390 898  0  0
  170 596   0 165 395 899 11 93
  171 148   5 166 396 898  0  0
  172 596   0 169 389 899  4 94
  173 148  11 170 390 898  0  0
  174 596   0 169 395 899 10 95
  175 148  13 170 396 898  0  0
  176 596   0 173 389 899 12 96
  177 148  14 174 390 898  0  0
  178 596   0 173 395 899 13 97
  179 148   9 174 396 898  0  0
  180 596   0 177 389 899  8 98
  181 148  10 178 390 898  0  0
  182 596   0 177 395 899  9 99
  183 148  15 178 396 898  0  0
  184 596   0 181 389 899 14 100
  185 148   6 182 390 898  0  0
  186 596   0 181 395 899  5 101
  187 148  12 182 396 898  0  0
  188 596   0 185 389 899 11 102
  189 148   7 186 390 898  0  0
  190 596   0 185 395 899  6 103
  191 148   3 186 396 898  0  0
  192 596   0 189 389 899  2 104
  193 148  16 190 390 898  0  0
  194 596   0 189 395 899 15 105
  195 148  14 190 396 898  0  0
  196 596   0 193 389 899 13 106
  197 148   3 194 390 898  0  0
  198 596   0 193 395 899  2 107
  199 148  15 194 396 898  0  0
  200 596   0 197 389 899 14 108
  201 148  17 198 390 898  0  0
  202 596   0 197 395 899 16 109
  203 148   6 198 396 898  0  0
  204 596   0 201 389 899  5 110
  205 148   4 202 390 898  0  0
  206 596   0 201 395 899  3 111
  207 148  13 202 396 898  0  0
  208 596   0 205 389 899 12 112
  209 148   9 206 390 898  0  0
  210 596   0 205 395 899  8 113
  211 148  16 206 396 898  0  0
  212 596   0 209 389 899 15 114
  213 148   8 210 390 898  0  0
  214 596   0 209 395 899  7 115
  215 148  11 210 396 898  0  0
  216 596   0 213 389 899 10 116
  217 148  17 214 390 898  0  0
  218 596   0 213 395 899 16 117
  219 148  17 214 396 898  0  0
  220 596   0 217 389 899 16 118
  221 148  11 218 390 898  0  0
  222 596   0 217 395 899 10 119
  223 148   8 218 396 898  0  0
  224 596   0 221 389 899  7 120
  225 148  16 222 390 898  0  0
  226 596   0 221 395 899 15 121
  227 148   9 222 396 898  0  0
  228 596   0 225 389 899  8 122
  229 148  13 226 390 898  0  0
  230 596   0 225 395 899 12 123
  231 148   4 226 396 898  0  0
  232 596   0 229 389 899  3 124
  233 148   6 230 390 898  0  0
  234 596   0 229 395 899  5 125
  235 148  17 230 396 898  0  0
  236 596   0 233 389 899 16 126
  237 148  15 234 390 898  0  0
  238 596   0 233 395 899 14 127
  239 148   3 234 396 898  0  0
  240 596   0 237 389 899  2 128
  241 148  14 238 390 898  0  0
  242 596   0 237 395 899 13 129
  243 148  16 238 396 898  0  0
  244 596   0 241 389 899 15 130
  245 148   3 242 390 898  0  0
  246 596   0 241 395 899  2 131
  247 148   7 242 396 898  0  0
  248 596   0 245 389 899  6 132
  249 148  12 246 390 898  0  0
  250 596   0 245 395 899 11 133
  251 148   6 246 396 898  0  0
  252 596   0 249 389 899  5 134
  253 148  15 250 390 898  0  0
  254 596   0 249 395 899 14 135
  255 148  10 250 396 898  0  0
  256 596   0 253 389 899  9 136
  257 148   9 254 390 898  0  0
  258 596   0 253 395 899  8 137
  259 148  14 254 396 898  0  0
  260 596   0 257 389 899 13 138
  261 148  13 258 390 898  0  0
  262 596   0 257 395 899 12 139
  263 148  11 258 396 898  0  0
  264 596   0 261 389 899 10 140
  265 148   5 262 390 898  0  0
  266 596   0 261 395 899  4 141
  267 148  12 262 396 898  0  0
  268 596   0 265 389 899 11 142
  269 148  11 266 390 898  0  0
  270 596   0 265 395 899 10 143
  271 148  10 266 396 898  0  0
  272 596   0 269 389 899  9 144
  273 148   1 270 390 898  0  0
  274 596   0 269 395 899  1 145
[RF]
1      194.444 832 833 834 50 1280 0 0 0 0 e
2      563.681 835 836 837 5125 100 0 0 0 0 i
3      194.444 832 833 834 50 1280 0 0 0 0.872665 e
4      194.444 832 833 834 50 1280 0 0 0 2.61799 e
5      194.444 832 833 834 50 1280 0 0 0 5.23599 e
6      194.444 832 833 834 50 1280 0 0 0 2.44346 e
7      194.444 832 833 834 50 1280 0 0 0 0.523599 e
8      194.444 832 833 834 50 1280 0 0 0 5.75959 e
9      194.444 832 833 834 50 1280 0 0 0 5.58505 e
10      194.444 832 833 834 50 1280 0 0 0 1.5708 e
11      194.444 832 833 834 50 1280 0 0 0 4.01426 e
12      194.444 832 833 834 50 1280 0 0 0 1.0472 e
13      194.444 832 833 834 50 1280 0 0 0 3.66519 e
14      194.444 832 833 834 50 1280 0 0 0 4.18879 e
15      194.444 832 833 834 50 1280 0 0 0 4.71239 e
16      194.444 832 833 834 50 1280 0 0 0 2.0944 e
17      194.444 832 833 834 50 1280 0 0 0 3.14159 e

# Format of arbitrary gradients:
#   time_shape_id of 0 means default timing (stepping with grad_raster starting at 1/2 of grad_raster)
# id amplitude first last amp_shape_id time_shape_id delay
# ..      Hz/m  Hz/m Hz/m        ..         ..          us
[GRADIENTS]
1  1.03852e+06            0       340608 1 0 0
2   1.3098e+06       340608            0 2 3 0
3  1.02597e+06            0       340608 4 0 0
4  1.29823e+06       340608            0 5 3 0
5  1.01342e+06            0       340608 6 0 0
6  1.30111e+06       340608            0 7 8 0
7  1.00087e+06            0       340608 9 0 0
8  1.30406e+06       340608            0 10 11 0
9       988322            0       340608 12 0 0
10  1.27387e+06       340608            0 13 14 0
11       975774            0       340608 15 0 0
12  1.27651e+06       340608            0 16 17 0
13       963225            0       340608 18 0 0
14  1.26467e+06       340608            0 19 17 0
15       950677            0       340608 20 0 0
16  1.26724e+06       340608            0 21 22 0
17       938129            0       340608 23 0 0
18  1.26986e+06       340608            0 24 25 0
19       925580            0       340608 26 0 0
20  1.23938e+06       340608            0 27 28 0
21       913032            0       340608 29 0 0
22  1.24167e+06       340608            0 30 31 0
23       900484            0       340608 32 0 0
24  1.24403e+06       340608            0 33 34 0
25       887935            0       340608 35 0 0
26  1.23177e+06       340608            0 36 34 0
27       875387            0       340608 37 0 0
28  1.23404e+06       340608            0 38 39 0
29       862838            0       340608 40 0 0
30  1.20326e+06       340608            0 41 42 0
31       850290            0       340608 43 0 0
32  1.20518e+06       340608            0 44 45 0
33       837742            0       340608 46 0 0
34  1.20715e+06       340608            0 47 48 0
35       825193            0       340608 49 0 0
36  1.20917e+06       340608            0 50 51 0
37       812645            0       340608 52 0 0
38  1.19646e+06       340608            0 53 51 0
39       800097            0       340608 54 0 0
40   1.1654e+06       340608            0 55 56 0
41       787548            0       340608 57 0 0
42   1.1669e+06       340608            0 58 59 0
43       775000            0       340608 60 0 0
44  1.16845e+06       340608            0 61 62 0
45       762452            0       340608 63 0 0
46  1.17004e+06       340608            0 64 65 0
47       749903            0       340608 66 0 0
48  1.13853e+06       340608            0 67 68 0
49       737355            0       340608 69 0 0
50  1.13974e+06       340608            0 70 71 0
51       724807            0       340608 72 0 0
52  1.14098e+06       340608            0 73 74 0
53       712258            0       340608 75 0 0
54  1.14225e+06       340608            0 76 77 0
55       699710            0       340608 78 0 0
56   1.1289e+06       340608            0 79 77 0
57       687162            0       340608 80 0 0
58  1.09711e+06       340608            0 81 82 0
59       674613            0       340608 83 0 0
60  1.09782e+06       340608            0 84 85 0
61       662065            0       340608 86 0 0
62  1.09855e+06       340608            0 87 88 0
63       649517            0       340608 89 0 0
64   1.0993e+06       340608            0 90 91 0
65       636968            0       340608 92 0 0
66  1.06707e+06       340608            0 93 94 0
67       624420            0       340608 95 0 0
68   1.0674e+06       340608            0 96 97 0
69       611872            0       340608 98 0 0
70  1.06775e+06       340608            0 99 100 0
71       599323            0       340608 101 0 0
72   1.0681e+06       340608            0 102 103 0
73       586775            0       340608 104 0 0
74  1.03543e+06       340608            0 105 106 0
75       574227            0       340608 107 0 0
76  1.03534e+06       340608            0 108 109 0
77       561678            0       340608 110 0 0
78  1.03526e+06       340608            0 111 112 0
79       549130            0       340608 113 0 0
80  1.03517e+06       340608            0 114 115 0
81       536582            0       340608 116 0 0
82  1.00205e+06       340608            0 117 118 0
83       524033            0       340608 119 0 0
84   1.0015e+06       340608            0 120 121 0
85       511485            0       340608 122 0 0
86  1.00094e+06       340608            0 123 124 0
87       498937            0       340608 125 0 0
88  1.00035e+06       340608            0 126 127 0
89       486388            0       340608 128 0 0
90       966796       340608            0 129 130 0
91       473840            0       340608 131 0 0
92       965726       340608            0 132 133 0
93       461292            0       340608 134 0 0
94       964626       340608            0 135 136 0
95       448743            0       340608 137 0 0
96       963493       340608            0 138 139 0
97       436195            0       340608 140 0 0
98       929496       340608            0 141 142 0
99       423647            0       340608 143 0 0
100       927847       340608            0 144 145 0
101       411098            0       340608 146 0 0
102       940180       340608            0 147 148 0
103       398550            0       340608 149 0 0
104       905517       340608            0 150 151 0
105       386002            0       340608 152 0 0
106       903454       340608            0 153 154 0
107       373453            0       340608 155 0 0
108       901328       340608            0 156 157 0
109       360905            0       340608 158 0 0
110       899135       340608            0 159 160 0
111       348357            0       340608 161 0 0
112       864036       340608            0 162 163 0
113       340608            0       340608 164 0 0
114       861261       340608            0 165 166 0
115       340608            0       340608 167 0 0
116       872242       340608            0 168 169 0
117       340608            0       340608 170 0 0
118       836456       340608            0 171 172 0
119       340608            0       340608 173 0 0
120       833146       340608            0 174 175 0
121       340608            0       340608 176 0 0
122       829728       340608            0 177 178 0
123       340608            0       340608 179 0 0
124       826196       340608            0 180 181 0
125       340608            0       340608 182 0 0
126       803158       340608            0 183 184 0
127       340608            0       340608 185 0 0
128       799115       340608            0 186 187 0
129       340608            0       340608 188 0 0
130       794933       340608            0 189 190 0
131       340608            0       340608 191 0 0
132       771101       340608            0 192 193 0
133       340608            0       340608 194 0 0
134       766354       340608            0 195 196 0
135       340608            0       340608 197 0 0
136       761438       340608            0 198 199 0
137       340608            0       340608 200 0 0
138       736754       340608            0 201 202 0
139       340608            0       340608 203 0 0
140       731211       340608            0 204 205 0
141       340608            0       340608 206 0 0
142       725461       340608            0 207 208 0
143       340608            0       340608 209 0 0
144       699864       340608            0 210 211 0
145       340608            0       340608 212 0 0
146       693415       340608            0 213 214 0
147       340608            0       340608 215 0 0
148       667334       340608            0 216 217 0
149       340608            0       340608 218 0 0
150       660135       340608            0 219 220 0
151       340608            0       340608 221 0 0
152       665707       340608            0 222 223 0
153       340608            0       340608 224 0 0
154       625551       340608            0 225 226 0
155       340608            0       340608 227 0 0
156       629825       340608            0 228 229 0
157       340608            0       340608 230 0 0
158       601615       340608            0 231 232 0
159       340608            0       340608 233 0 0
160       592448       340608            0 234 235 0
161       340608            0       340608 236 0 0
162       595561       340608            0 237 238 0
163       340608            0       340608 239 0 0
164       565512       340608            0 240 241 0
165       340608            0       340608 242 0 0
166       567543       340608            0 243 244 0
167      -340608            0       340608 245 0 0
168       524213       340608            0 246 247 0
169      -340608            0       340608 248 0 0
170       524371       340608            0 249 250 0
171      -340608            0       340608 251 0 0
172       492225       340608            0 252 253 0
173      -340608            0       340608 254 0 0
174       490829       340608            0 255 256 0
175      -340608            0       340608 257 0 0
176       468543       340608            0 258 259 0
177      -340608            0       340608 260 0 0
178       465791       340608            0 261 262 0
179      -340608            0       340608 263 0 0
180       429415       340608            0 264 265 0
181      -340608            0       340608 266 0 0
182       424336       340608            0 267 268 0
183      -340608            0       340608 269 0 0
184       396967       340608            0 270 271 0
185      -340608            0       340608 272 0 0
186       357473       340608            0 273 274 0
187      -340608            0       340608 275 0 0
188       358434       340608            0 276 277 0
189      -340608            0       340608 278 0 0
190       340608       340608            0 279 280 0
191      -340608            0       340608 281 0 0
192       340608       340608            0 282 283 0
193      -340608            0       340608 284 0 0
194       340608       340608            0 285 286 0
195      -340608            0       340608 287 0 0
196       340608       340608            0 288 289 0
197      -340608            0       340608 290 0 0
198       340608       340608            0 291 292 0
199      -340608            0       340608 293 0 0
200       340608       340608            0 294 295 0
201      -340608            0       340608 296 0 0
202       340608       340608            0 297 298 0
203      -340608            0       340608 299 0 0
204       340608       340608            0 300 301 0
205      -340608            0       340608 302 0 0
206       340608       340608            0 303 304 0
207      -340608            0       340608 305 0 0
208       362694       340608            0 306 307 0
209      -340608            0       340608 308 0 0
210       403749       340608            0 309 310 0
211      -340608            0       340608 311 0 0
212       361131       340608            0 312 313 0
213      -340608            0       340608 314 0 0
214       398938       340608            0 315 316 0
215      -340608            0       340608 317 0 0
216       432766       340608            0 318 319 0
217      -340608            0       340608 320 0 0
218       436583       340608            0 321 322 0
219      -340608            0       340608 323 0 0
220       468450       340608            0 324 325 0
221      -345955            0       340608 326 0 0
222       500316       340608            0 327 328 0
223      -358504            0       340608 329 0 0
224       502026       340608            0 330 331 0
225      -371052            0       340608 332 0 0
226       503472       340608            0 333 334 0
227      -383600            0       340608 335 0 0
228       538029       340608            0 336 337 0
229      -396149            0       340608 338 0 0
230       536756       340608            0 339 340 0
231      -408697            0       340608 341 0 0
232       535657       340608            0 342 343 0
233      -421245            0       340608 344 0 0
234       604155       340608            0 345 346 0
235      -433794            0       340608 347 0 0
236       629193       340608            0 348 349 0
237      -446342            0       340608 350 0 0
238       631671       340608            0 351 352 0
239      -458890            0       340608 353 0 0
240       633984       340608            0 354 355 0
241      -471439            0       340608 356 0 0
242       636148       340608            0 357 358 0
243      -483987            0       340608 359 0 0
244       670108       340608            0 360 361 0
245      -496535            0       340608 362 0 0
246       671046       340608            0 363 364 0
247      -509084            0       340608 365 0 0
248       671929       340608            0 366 367 0
249      -521632            0       340608 368 0 0
250       672761       340608            0 369 370 0
251      -534180            0       340608 371 0 0
252       733203       340608            0 372 373 0
253      -546729            0       340608 374 0 0
254       732285       340608            0 375 376 0
255      -559277            0       340608 377 0 0
256       731417       340608            0 378 379 0
257      -571825            0       340608 380 0 0
258       769814       340608            0 381 382 0
259      -584374            0       340608 383 0 0
260       767956       340608            0 384 385 0
261      -596922            0       340608 386 0 0
262       766195       340608            0 387 388 0
263      -609470            0       340608 389 0 0
264       802571       340608            0 390 391 0
265      -622019            0       340608 392 0 0
266       799968       340608            0 393 394 0
267      -634567            0       340608 395 0 0
268       797495       340608            0 396 397 0
269      -647115            0       340608 398 0 0
270       832052       340608            0 399 400 0
271      -659664            0       340608 401 0 0
272       809122       340608            0 402 403 0
273      -672212            0       340608 404 0 0
274       842034       340608            0 405 406 0
275      -684760            0       340608 407 0 0
276       838755       340608            0 408 409 0
277      -697309            0       340608 410 0 0
278       835626       340608            0 411 412 0
279      -709857            0       340608 413 0 0
280       867041       340608            0 414 415 0
281      -722405            0       340608 416 0 0
282       875233       340608            0 417 418 0
283      -734954            0       340608 419 0 0
284       906649       340608            0 420 421 0
285      -747502            0       340608 422 0 0
286       902080       340608            0 423 424 0
287      -760050            0       340608 425 0 0
288       897710       340608            0 426 427 0
289      -772599            0       340608 428 0 0
290       908020       340608            0 429 430 0
291      -785147            0       340608 431 0 0
292       903708       340608            0 432 433 0
293      -797695            0       340608 434 0 0
294       932505       340608            0 435 436 0
295      -810244            0       340608 437 0 0
296       940015       340608            0 438 439 0
297      -822792            0       340608 440 0 0
298       968812       340608            0 441 442 0
299      -835340            0       340608 443 0 0
300       944081       340608            0 444 445 0
301      -847889            0       340608 446 0 0
302       971726       340608            0 447 448 0
303      -860437            0       340608 449 0 0
304       966419       340608            0 450 451 0
305      -872985            0       340608 452 0 0
306  1.00658e+06       340608            0 453 454 0
307      -885534            0       340608 455 0 0
308  1.00059e+06       340608            0 456 457 0
309      -898082            0       340608 458 0 0
310  1.00793e+06       340608            0 459 460 0
311      -910630            0       340608 461 0 0
312  1.00214e+06       340608            0 462 463 0
313      -923179            0       340608 464 0 0
314  1.04144e+06       340608            0 465 466 0
315      -935727            0       340608 467 0 0
316  1.03502e+06       340608            0 468 469 0
317      -948275            0       340608 470 0 0
318  1.04145e+06       340608            0 471 472 0
319      -960824            0       340608 473 0 0
320  1.03526e+06       340608            0 474 475 0
321      -973372            0       340608 476 0 0
322  1.07373e+06       340608            0 477 478 0
323      -985920            0       340608 479 0 0
324  1.06695e+06       340608            0 480 481 0
325      -998469            0       340608 482 0 0
326  1.07258e+06       340608            0 483 484 0
327 -1.01102e+06            0       340608 485 0 0
328  1.07902e+06       340608            0 486 487 0
329 -1.02357e+06            0       340608 488 0 0
330   1.1037e+06       340608            0 489 490 0
331 -1.03611e+06            0       340608 491 0 0
332  1.07773e+06       340608            0 492 493 0
333 -1.04866e+06            0       340608 494 0 0
334  1.10156e+06       340608            0 495 496 0
335 -1.06121e+06            0       340608 497 0 0
336  1.10778e+06       340608            0 498 499 0
337 -1.07376e+06            0       340608 500 0 0
338  1.11243e+06       340608            0 501 502 0
339 -1.08631e+06            0       340608 503 0 0
340  1.10557e+06       340608            0 504 505 0
341 -1.09886e+06            0       340608 506 0 0
342  1.14197e+06       340608            0 507 508 0
343  -1.1114e+06            0       340608 509 0 0
344  1.14597e+06       340608            0 510 511 0
345 -1.12395e+06            0       340608 512 0 0
346  1.13868e+06       340608            0 513 514 0
347  -1.1365e+06            0       340608 515 0 0
348  1.17502e+06       340608            0 516 517 0
349 -1.14905e+06            0       340608 518 0 0
350  1.16725e+06       340608            0 519 520 0
351  -1.1616e+06            0       340608 521 0 0
352  1.17072e+06       340608            0 522 523 0
353 -1.17415e+06            0       340608 524 0 0
354  1.17653e+06       340608            0 525 526 0
355 -1.18669e+06            0       340608 527 0 0
356  1.17979e+06       340608            0 528 529 0
357 -1.19924e+06            0       340608 530 0 0
358  1.17231e+06       340608            0 531 532 0
359 -1.21179e+06            0       340608 533 0 0
360  1.20746e+06       340608            0 534 535 0
361 -1.22434e+06            0       340608 536 0 0
362  1.21019e+06       340608            0 537 538 0
363 -1.23689e+06            0       340608 539 0 0
364  1.20236e+06       340608            0 540 541 0
365 -1.24944e+06            0       340608 542 0 0
366  1.23742e+06       340608            0 543 544 0
367 -1.26198e+06            0       340608 545 0 0
