# Pulseq sequence file
# Created by MATLAB mr toolbox

[VERSION]
major 1
minor 5
revision 1

[DEFINITIONS]
ACS_Pairs 0 
AdcRasterTime 1e-07 
BlockDurationRaster 1e-05 
ETL_Blocks_IMG 29 
ETL_CenterSlot 96 
ETL_DummySlots_IMG 332 
ETL_Efficiency_IMG 0.9625 
ETL_FillerPerKy_IMG 3 
ETL_Mode_IMG segmented 
ETL_RealSlots_IMG 5236 
ETL_SegLen_IMG 16 
ETL_SegmentsPerBlock_IMG 12 
ETL_SegmentsPerKy_IMG 5 
ETL_Target 192 
FOV 0.192 0.256 0.256 
FlipAngle 7 
GradientRasterTime 1e-05 
Name mprage_3d_wave_sin_cos_154x204x256_res1p25x1p25x1mm_ETL192_segmented_R1_2_R2_3_ACS1_0_ACS2_0_os4_amp8_cycles10_SAG_prisma 
Nx 154 
Ny 204 
Nz 256 
OrientationMapping SAG 
PE1_ACS 0 
PE1_ACSTargetLines 0 
PE1_ImgLines 77 
PE1_R 2 
PE2_ACS 0 
PE2_ACSTargetLines 0 
PE2_ImgLines 68 
PE2_R 3 
PhaseResolution 0.796875 
RadiofrequencyRasterTime 1e-06 
ReadoutOversamplingFactor 4 
ReceiverGainHigh 1 
RequestedResolutionX_mm 1.25 
RequestedResolutionY_mm 1.25 
RequestedResolutionZ_mm 1 
ResolutionX_mm 1.24675325 
ResolutionY_mm 1.25490196 
ResolutionZ_mm 1 
SliceThickness 0.00124675325 
TR 2.5 
TotalDuration 72.5 
kSpaceCenterLine 102 
kSpaceCenterPartition 77 
ro_os 4 

# Format of blocks:
# NUM DUR RF  GX  GY  GZ  ADC  EXT
[BLOCKS]
    1 1044   2   0   0   0  0  0
    2 37921   0   0 717   0  0  0
    3 148   1   0   0   0  0  0
    4 596   0 295 315 719  0  0
    5 148   3 296 316 718  0  0
    6 596   0 299 315 719  0  0
    7 148   4 300 316 718  0  0
    8 596   0 303 321 719  1  5
    9 148   5 304 322 718  0  0
   10 596   0 307 321 719  2  8
   11 148   6 308 322 718  0  0
   12 596   0   3 309 719  3 11
   13 148   7   4 310 718  0  0
   14 596   0   7 309 719  4 13
   15 148   8   8 310 718  0  0
   16 596   0  11 309 719  5 14
   17 148   9  12 310 718  0  0
   18 596   0  15 309 719  6 15
   19 148   1  16 310 718  0  0
   20 596   0  19 309 719  7 16
   21 148  10  20 310 718  0  0
   22 596   0   3 315 719  8 17
   23 148  11   4 316 718  0  0
   24 596   0   7 315 719  9 19
   25 148  12   8 316 718  0  0
   26 596   0  11 315 719 10 21
   27 148   5  12 316 718  0  0
   28 596   0  15 315 719  2 23
   29 148  11  16 316 718  0  0
   30 596   0  19 315 719  9 25
   31 148  13  20 316 718  0  0
   32 596   0   3 321 719 11 26
   33 148  14   4 322 718  0  0
   34 596   0   7 321 719 12 27
   35 148   9   8 322 718  0  0
   36 596   0  23 309 719  6 28
   37 148  10  24 310 718  0  0
   38 596   0  27 309 719  8 29
   39 148  15  28 310 718  0  0
   40 596   0  31 309 719 13 30
   41 148   6  32 310 718  0  0
   42 596   0  35 309 719  3 31
   43 148  12  36 310 718  0  0
   44 596   0  39 309 719 10 32
   45 148   7  40 310 718  0  0
   46 596   0  23 315 719  4 34
   47 148   3  24 316 718  0  0
   48 596   0  27 315 719 14 35
   49 148  16  28 316 718  0  0
   50 596   0  31 315 719 15 36
   51 148  14  32 316 718  0  0
   52 596   0  35 315 719 12 37
   53 148   3  36 316 718  0  0
   54 596   0  39 315 719 14 38
   55 148  15  40 316 718  0  0
   56 596   0  23 321 719 13 39
   57 148  17  24 322 718  0  0
   58 596   0  27 321 719 16 40
   59 148   6  28 322 718  0  0
   60 596   0  43 309 719  3 41
   61 148   4  44 310 718  0  0
   62 596   0  47 309 719  1 42
   63 148  13  48 310 718  0  0
   64 596   0  51 309 719 11 43
   65 148   9  52 310 718  0  0
   66 596   0  55 309 719  6 44
   67 148  16  56 310 718  0  0
   68 596   0  59 309 719 15 45
   69 148   8  60 310 718  0  0
   70 596   0  43 315 719  5 46
   71 148  11  44 316 718  0  0
   72 596   0  47 315 719  9 47
   73 148  17  48 316 718  0  0
   74 596   0  51 315 719 16 48
   75 148  17  52 316 718  0  0
   76 596   0  55 315 719 16 49
   77 148  11  56 316 718  0  0
   78 596   0  59 315 719  9 50
   79 148   8  60 316 718  0  0
   80 596   0  43 321 719  5 51
   81 148  16  44 322 718  0  0
   82 596   0  47 321 719 15 52
   83 148   9  48 322 718  0  0
   84 596   0  63 309 719  6 53
   85 148  13  64 310 718  0  0
   86 596   0  67 309 719 11 54
   87 148   4  68 310 718  0  0
   88 596   0  71 309 719  1 55
   89 148   6  72 310 718  0  0
   90 596   0  75 309 719  3 56
   91 148  17  76 310 718  0  0
   92 596   0  79 309 719 16 57
   93 148  15  80 310 718  0  0
   94 596   0  63 315 719 13 58
   95 148   3  64 316 718  0  0
   96 596   0  67 315 719 14 59
   97 148  14  68 316 718  0  0
   98 596   0  71 315 719 12 60
   99 148  16  72 316 718  0  0
  100 596   0  75 315 719 15 61
  101 148   3  76 316 718  0  0
  102 596   0  79 315 719 14 62
  103 148   7  80 316 718  0  0
  104 596   0  63 321 719  4 63
  105 148  12  64 322 718  0  0
  106 596   0  67 321 719 10 64
  107 148   6  68 322 718  0  0
  108 596   0  83 309 719  3 65
  109 148  15  84 310 718  0  0
  110 596   0  87 309 719 13 66
  111 148  10  88 310 718  0  0
  112 596   0  91 309 719  8 67
  113 148   9  92 310 718  0  0
  114 596   0  95 309 719  6 68
  115 148  14  96 310 718  0  0
  116 596   0  99 309 719 12 69
  117 148  13 100 310 718  0  0
  118 596   0  83 315 719 11 70
  119 148  11  84 316 718  0  0
  120 596   0  87 315 719  9 71
  121 148   5  88 316 718  0  0
  122 596   0  91 315 719  2 72
  123 148  12  92 316 718  0  0
  124 596   0  95 315 719 10 73
  125 148  11  96 316 718  0  0
  126 596   0  99 315 719  9 74
  127 148  10 100 316 718  0  0
  128 596   0  83 321 719  8 75
  129 148   1  84 322 718  0  0
  130 596   0  87 321 719  7 76
  131 148   9  88 322 718  0  0
  132 596   0 103 309 719  6 77
  133 148   8 104 310 718  0  0
  134 596   0 107 309 719  5 78
  135 148   7 108 310 718  0  0
  136 596   0 111 309 719  4 79
  137 148   6 112 310 718  0  0
  138 596   0 115 309 719  3 80
  139 148   5 116 310 718  0  0
  140 596   0 119 309 719  2 81
  141 148   4 120 310 718  0  0
  142 596   0 103 315 719  1 82
  143 148   3 104 316 718  0  0
  144 596   0 107 315 719 14 83
  145 148   1 108 316 718  0  0
  146 596   0 111 315 719  7 84
  147 148   1 112 316 718  0  0
  148 596   0 115 315 719  7 85
  149 148   3 116 316 718  0  0
  150 596   0 119 315 719 14 86
  151 148   4 120 316 718  0  0
  152 596   0 103 321 719  1 87
  153 148   5 104 322 718  0  0
  154 596   0 107 321 719  2 88
  155 148   6 108 322 718  0  0
  156 596   0 123 309 719  3 89
  157 148   7 124 310 718  0  0
  158 596   0 127 309 719  4 90
  159 148   8 128 310 718  0  0
  160 596   0 131 309 719  5 91
  161 148   9 132 310 718  0  0
  162 596   0 135 309 719  6 92
  163 148   1 136 310 718  0  0
  164 596   0 139 309 719  7 93
  165 148  10 140 310 718  0  0
  166 596   0 123 315 719  8 94
  167 148  11 124 316 718  0  0
  168 596   0 127 315 719  9 95
  169 148  12 128 316 718  0  0
  170 596   0 131 315 719 10 96
  171 148   5 132 316 718  0  0
  172 596   0 135 315 719  2 97
  173 148  11 136 316 718  0  0
  174 596   0 139 315 719  9 98
  175 148  13 140 316 718  0  0
  176 596   0 123 321 719 11 99
  177 148  14 124 322 718  0  0
  178 596   0 127 321 719 12 100
  179 148   9 128 322 718  0  0
  180 596   0 143 309 719  6 101
  181 148  10 144 310 718  0  0
  182 596   0 147 309 719  8 102
  183 148  15 148 310 718  0  0
  184 596   0 151 309 719 13 103
  185 148   6 152 310 718  0  0
  186 596   0 155 309 719  3 104
  187 148  12 156 310 718  0  0
  188 596   0 159 309 719 10 105
  189 148   7 160 310 718  0  0
  190 596   0 143 315 719  4 106
  191 148   3 144 316 718  0  0
  192 596   0 147 315 719 14 107
  193 148  16 148 316 718  0  0
  194 596   0 151 315 719 15 108
  195 148  14 152 316 718  0  0
  196 596   0 155 315 719 12 109
  197 148   3 156 316 718  0  0
  198 596   0 159 315 719 14 110
  199 148  15 160 316 718  0  0
  200 596   0 143 321 719 13 111
  201 148  17 144 322 718  0  0
  202 596   0 147 321 719 16 112
  203 148   6 148 322 718  0  0
  204 596   0 163 309 719  3 113
  205 148   4 164 310 718  0  0
  206 596   0 167 309 719  1 114
  207 148  13 168 310 718  0  0
  208 596   0 171 309 719 11 115
  209 148   9 172 310 718  0  0
  210 596   0 175 309 719  6 116
  211 148  16 176 310 718  0  0
  212 596   0 179 309 719 15 117
  213 148   8 180 310 718  0  0
  214 596   0 163 315 719  5 118
  215 148  11 164 316 718  0  0
  216 596   0 167 315 719  9 119
  217 148  17 168 316 718  0  0
  218 596   0 171 315 719 16 120
  219 148  17 172 316 718  0  0
  220 596   0 175 315 719 16 121
  221 148  11 176 316 718  0  0
  222 596   0 179 315 719  9 122
  223 148   8 180 316 718  0  0
  224 596   0 163 321 719  5 123
  225 148  16 164 322 718  0  0
  226 596   0 167 321 719 15 124
  227 148   9 168 322 718  0  0
  228 596   0 183 309 719  6 125
  229 148  13 184 310 718  0  0
  230 596   0 187 309 719 11 126
  231 148   4 188 310 718  0  0
  232 596   0 191 309 719  1 127
  233 148   6 192 310 718  0  0
  234 596   0 195 309 719  3 128
  235 148  17 196 310 718  0  0
  236 596   0 199 309 719 16 129
  237 148  15 200 310 718  0  0
  238 596   0 183 315 719 13 130
  239 148   3 184 316 718  0  0
  240 596   0 187 315 719 14 131
  241 148  14 188 316 718  0  0
  242 596   0 191 315 719 12 132
  243 148  16 192 316 718  0  0
  244 596   0 195 315 719 15 133
  245 148   3 196 316 718  0  0
  246 596   0 199 315 719 14 134
  247 148   7 200 316 718  0  0
  248 596   0 183 321 719  4 135
  249 148  12 184 322 718  0  0
  250 596   0 187 321 719 10 136
  251 148   6 188 322 718  0  0
  252 596   0 203 309 719  3 137
  253 148  15 204 310 718  0  0
  254 596   0 207 309 719 13 138
  255 148  10 208 310 718  0  0
  256 596   0 211 309 719  8 139
  257 148   9 212 310 718  0  0
  258 596   0 215 309 719  6 140
  259 148  14 216 310 718  0  0
  260 596   0 219 309 719 12 141
  261 148  13 220 310 718  0  0
  262 596   0 203 315 719 11 142
  263 148  11 204 316 718  0  0
  264 596   0 207 315 719  9 143
  265 148   5 208 316 718  0  0
  266 596   0 211 315 719  2 144
  267 148  12 212 316 718  0  0
  268 596   0 215 315 719 10 145
  269 148  11 216 316 718  0  0
  270 596   0 219 315 719  9 146
  271 148  10 220 316 718  0  0
  272 596   0 203 321 719  8 147
[RF]
1      194.444 670 671 672 50 1280 0 0 0 0 e
2      563.681 673 674 675 5125 100 0 0 0 0 i
3      194.444 670 671 672 50 1280 0 0 0 0.872665 e
4      194.444 670 671 672 50 1280 0 0 0 2.61799 e
5      194.444 670 671 672 50 1280 0 0 0 5.23599 e
6      194.444 670 671 672 50 1280 0 0 0 2.44346 e
7      194.444 670 671 672 50 1280 0 0 0 0.523599 e
8      194.444 670 671 672 50 1280 0 0 0 5.75959 e
9      194.444 670 671 672 50 1280 0 0 0 5.58505 e
10      194.444 670 671 672 50 1280 0 0 0 1.5708 e
11      194.444 670 671 672 50 1280 0 0 0 4.01426 e
12      194.444 670 671 672 50 1280 0 0 0 1.0472 e
13      194.444 670 671 672 50 1280 0 0 0 3.66519 e
14      194.444 670 671 672 50 1280 0 0 0 4.18879 e
15      194.444 670 671 672 50 1280 0 0 0 4.71239 e
16      194.444 670 671 672 50 1280 0 0 0 2.0944 e
17      194.444 670 671 672 50 1280 0 0 0 3.14159 e

# Format of arbitrary gradients:
#   time_shape_id of 0 means default timing (stepping with grad_raster starting at 1/2 of grad_raster)
# id amplitude first last amp_shape_id time_shape_id delay
# ..      Hz/m  Hz/m Hz/m        ..         ..          us
[GRADIENTS]
1       800097            0       340608 1 0 0
2   1.1654e+06       340608            0 2 3 0
3       787548            0       340608 4 0 0
4   1.1669e+06       340608            0 5 6 0
5       775000            0       340608 7 0 0
6  1.16845e+06       340608            0 8 9 0
7       762452            0       340608 10 0 0
8  1.17004e+06       340608            0 11 12 0
9       749903            0       340608 13 0 0
10  1.13853e+06       340608            0 14 15 0
11       737355            0       340608 16 0 0
12  1.13974e+06       340608            0 17 18 0
13       724807            0       340608 19 0 0
14  1.14098e+06       340608            0 20 21 0
15       712258            0       340608 22 0 0
16  1.14225e+06       340608            0 23 24 0
17       699710            0       340608 25 0 0
18   1.1289e+06       340608            0 26 24 0
19       687162            0       340608 27 0 0
20  1.09711e+06       340608            0 28 29 0
21       674613            0       340608 30 0 0
22  1.09782e+06       340608            0 31 32 0
23       662065            0       340608 33 0 0
24  1.09855e+06       340608            0 34 35 0
25       649517            0       340608 36 0 0
26   1.0993e+06       340608            0 37 38 0
27       636968            0       340608 39 0 0
28  1.06707e+06       340608            0 40 41 0
29       624420            0       340608 42 0 0
30   1.0674e+06       340608            0 43 44 0
31       611872            0       340608 45 0 0
32  1.06775e+06       340608            0 46 47 0
33       599323            0       340608 48 0 0
34   1.0681e+06       340608            0 49 50 0
35       586775            0       340608 51 0 0
36  1.03543e+06       340608            0 52 53 0
37       574227            0       340608 54 0 0
38  1.03534e+06       340608            0 55 56 0
39       561678            0       340608 57 0 0
40  1.03526e+06       340608            0 58 59 0
41       549130            0       340608 60 0 0
42  1.03517e+06       340608            0 61 62 0
43       536582            0       340608 63 0 0
44  1.00205e+06       340608            0 64 65 0
45       524033            0       340608 66 0 0
46   1.0015e+06       340608            0 67 68 0
47       511485            0       340608 69 0 0
48  1.00094e+06       340608            0 70 71 0
49       498937            0       340608 72 0 0
50  1.00035e+06       340608            0 73 74 0
51       486388            0       340608 75 0 0
52       966796       340608            0 76 77 0
53       473840            0       340608 78 0 0
54       965726       340608            0 79 80 0
55       461292            0       340608 81 0 0
56       964626       340608            0 82 83 0
57       448743            0       340608 84 0 0
58       963493       340608            0 85 86 0
59       436195            0       340608 87 0 0
60       929496       340608            0 88 89 0
61       423647            0       340608 90 0 0
62       927847       340608            0 91 92 0
63       411098            0       340608 93 0 0
64       940180       340608            0 94 95 0
65       398550            0       340608 96 0 0
66       905517       340608            0 97 98 0
67       386002            0       340608 99 0 0
68       903454       340608            0 100 101 0
69       373453            0       340608 102 0 0
70       901328       340608            0 103 104 0
71       360905            0       340608 105 0 0
72       899135       340608            0 106 107 0
73       348357            0       340608 108 0 0
74       864036       340608            0 109 110 0
75       340608            0       340608 111 0 0
76       861261       340608            0 112 113 0
77       340608            0       340608 114 0 0
78       872242       340608            0 115 116 0
79       340608            0       340608 117 0 0
80       836456       340608            0 118 119 0
81       340608            0       340608 120 0 0
82       833146       340608            0 121 122 0
83       340608            0       340608 123 0 0
84       829728       340608            0 124 125 0
85       340608            0       340608 126 0 0
86       826196       340608            0 127 128 0
87       340608            0       340608 129 0 0
88       803158       340608            0 130 131 0
89       340608            0       340608 132 0 0
90       799115       340608            0 133 134 0
91       340608            0       340608 135 0 0
92       794933       340608            0 136 137 0
93       340608            0       340608 138 0 0
94       771101       340608            0 139 140 0
95       340608            0       340608 141 0 0
96       766354       340608            0 142 143 0
97       340608            0       340608 144 0 0
98       761438       340608            0 145 146 0
99       340608            0       340608 147 0 0
100       736754       340608            0 148 149 0
101       340608            0       340608 150 0 0
102       731211       340608            0 151 152 0
103       340608            0       340608 153 0 0
104       725461       340608            0 154 155 0
105       340608            0       340608 156 0 0
106       699864       340608            0 157 158 0
107       340608            0       340608 159 0 0
108       693415       340608            0 160 161 0
109       340608            0       340608 162 0 0
110       667334       340608            0 163 164 0
111       340608            0       340608 165 0 0
112       660135       340608            0 166 167 0
113       340608            0       340608 168 0 0
114       665707       340608            0 169 170 0
115       340608            0       340608 171 0 0
116       625551       340608            0 172 173 0
117       340608            0       340608 174 0 0
118       629825       340608            0 175 176 0
119       340608            0       340608 177 0 0
120       601615       340608            0 178 179 0
121       340608            0       340608 180 0 0
122       592448       340608            0 181 182 0
123       340608            0       340608 183 0 0
124       595561       340608            0 184 185 0
125       340608            0       340608 186 0 0
126       565512       340608            0 187 188 0
127       340608            0       340608 189 0 0
128       567543       340608            0 190 191 0
129      -340608            0       340608 192 0 0
130       524213       340608            0 193 194 0
131      -340608            0       340608 195 0 0
132       524371       340608            0 196 197 0
133      -340608            0       340608 198 0 0
134       492225       340608            0 199 200 0
135      -340608            0       340608 201 0 0
136       490829       340608            0 202 203 0
137      -340608            0       340608 204 0 0
138       468543       340608            0 205 206 0
139      -340608            0       340608 207 0 0
140       465791       340608            0 208 209 0
141      -340608            0       340608 210 0 0
142       429415       340608            0 211 212 0
143      -340608            0       340608 213 0 0
144       424336       340608            0 214 215 0
145      -340608            0       340608 216 0 0
146       396967       340608            0 217 218 0
147      -340608            0       340608 219 0 0
148       357473       340608            0 220 221 0
149      -340608            0       340608 222 0 0
150       358434       340608            0 223 224 0
151      -340608            0       340608 225 0 0
152       340608       340608            0 226 227 0
153      -340608            0       340608 228 0 0
154       340608       340608            0 229 230 0
155      -340608            0       340608 231 0 0
156       340608       340608            0 232 233 0
157      -340608            0       340608 234 0 0
158       340608       340608            0 235 236 0
159      -340608            0       340608 237 0 0
160       340608       340608            0 238 239 0
161      -340608            0       340608 240 0 0
162       340608       340608            0 241 242 0
163      -340608            0       340608 243 0 0
164       340608       340608            0 244 245 0
165      -340608            0       340608 246 0 0
166       340608       340608            0 247 248 0
167      -340608            0       340608 249 0 0
168       340608       340608            0 250 251 0
169      -340608            0       340608 252 0 0
170       362694       340608            0 253 254 0
171      -340608            0       340608 255 0 0
172       403749       340608            0 256 257 0
173      -340608            0       340608 258 0 0
174       361131       340608            0 259 260 0
175      -340608            0       340608 261 0 0
176       398938       340608            0 262 263 0
177      -340608            0       340608 264 0 0
178       432766       340608            0 265 266 0
179      -340608            0       340608 267 0 0
180       436583       340608            0 268 269 0
181      -340608            0       340608 270 0 0
182       468450       340608            0 271 272 0
183      -345955            0       340608 273 0 0
184       500316       340608            0 274 275 0
185      -358504            0       340608 276 0 0
186       502026       340608            0 277 278 0
187      -371052            0       340608 279 0 0
188       503472       340608            0 280 281 0
189      -383600            0       340608 282 0 0
190       538029       340608            0 283 284 0
191      -396149            0       340608 285 0 0
192       536756       340608            0 286 287 0
193      -408697            0       340608 288 0 0
194       535657       340608            0 289 290 0
195      -421245            0       340608 291 0 0
196       604155       340608            0 292 293 0
197      -433794            0       340608 294 0 0
198       629193       340608            0 295 296 0
199      -446342            0       340608 297 0 0
200       631671       340608            0 298 299 0
201      -458890            0       340608 300 0 0
202       633984       340608            0 301 302 0
203      -471439            0       340608 303 0 0
204       636148       340608            0 304 305 0
205      -483987            0       340608 306 0 0
206       670108       340608            0 307 308 0
207      -496535            0       340608 309 0 0
208       671046       340608            0 310 311 0
209      -509084            0       340608 312 0 0
210       671929       340608            0 313 314 0
211      -521632            0       340608 315 0 0
212       672761       340608            0 316 317 0
213      -534180            0       340608 318 0 0
214       733203       340608            0 319 320 0
215      -546729            0       340608 321 0 0
216       732285       340608            0 322 323 0
217      -559277            0       340608 324 0 0
218       731417       340608            0 325 326 0
219      -571825            0       340608 327 0 0
220       769814       340608            0 328 329 0
221      -584374            0       340608 330 0 0
222       767956       340608            0 331 332 0
223      -596922            0       340608 333 0 0
224       766195       340608            0 334 335 0
225      -609470            0       340608 336 0 0
226       802571       340608            0 337 338 0
227      -622019            0       340608 339 0 0
228       799968       340608            0 340 341 0
229      -634567            0       340608 342 0 0
230       797495       340608            0 343 344 0
231      -647115            0       340608 345 0 0
232       832052       340608            0 346 347 0
233      -659664            0       340608 348 0 0
234       809122       340608            0 349 350 0
235      -672212            0       340608 351 0 0
236       842034       340608            0 352 353 0
237      -684760            0       340608 354 0 0
238       838755       340608            0 355 356 0
239      -697309            0       340608 357 0 0
240       835626       340608            0 358 359 0
241      -709857            0       340608 360 0 0
242       867041       340608            0 361 362 0
243      -722405            0       340608 363 0 0
244       875233       340608            0 364 365 0
245      -734954            0       340608 366 0 0
246       906649       340608            0 367 368 0
247      -747502            0       340608 369 0 0
248       902080       340608            0 370 371 0
249      -760050            0       340608 372 0 0
250       897710       340608            0 373 374 0
251      -772599            0       340608 375 0 0
252       908020       340608            0 376 377 0
253      -785147            0       340608 378 0 0
254       903708       340608            0 379 380 0
255      -797695            0       340608 381 0 0
256       932505       340608            0 382 383 0
257      -810244            0       340608 384 0 0
258       940015       340608            0 385 386 0
259      -822792            0       340608 387 0 0
260       968812       340608            0 388 389 0
261      -835340            0       340608 390 0 0
262       944081       340608            0 391 392 0
263      -847889            0       340608 393 0 0
264       971726       340608            0 394 395 0
265      -860437            0       340608 396 0 0
266       966419       340608            0 397 398 0
267      -872985            0       340608 399 0 0
268  1.00658e+06       340608            0 400 401 0
269      -885534            0       340608 402 0 0
270  1.00059e+06       340608            0 403 404 0
271      -898082            0       340608 405 0 0
272  1.00793e+06       340608            0 406 407 0
273      -910630            0       340608 408 0 0
274  1.00214e+06       340608            0 409 410 0
275      -923179            0       340608 411 0 0
276  1.04144e+06       340608            0 412 413 0
277      -935727            0       340608 414 0 0
278  1.03502e+06       340608            0 415 416 0
279      -948275            0       340608 417 0 0
280  1.04145e+06       340608            0 418 419 0
281      -960824            0       340608 420 0 0
282  1.03526e+06       340608            0 421 422 0
283      -973372            0       340608 423 0 0
284  1.07373e+06       340608            0 424 425 0
285      -985920            0       340608 426 0 0
286  1.06695e+06       340608            0 427 428 0
287      -998469            0       340608 429 0 0
288  1.07258e+06       340608            0 430 431 0
289 -1.01102e+06            0       340608 432 0 0
290  1.07902e+06       340608            0 433 434 0
291 -1.02357e+06            0       340608 435 0 0
292   1.1037e+06       340608            0 436 437 0
293 -1.03611e+06            0       340608 438 0 0
294  1.07773e+06       340608            0 439 440 0
295 -1.04866e+06            0       340608 441 0 0
296  1.10156e+06       340608            0 442 443 0
297 -1.06121e+06            0       340608 444 0 0
298  1.10778e+06       340608            0 445 446 0
299 -1.07376e+06            0       340608 447 0 0
300  1.11243e+06       340608            0 448 449 0
301 -1.08631e+06            0       340608 450 0 0
302  1.10557e+06       340608            0 451 452 0
303 -1.09886e+06            0       340608 453 0 0
304  1.14197e+06       340608            0 454 455 0
305  -1.1114e+06            0       340608 456 0 0
306  1.14597e+06       340608            0 457 458 0
307 -1.12395e+06            0       340608 459 0 0
308  1.13868e+06       340608            0 460 461 0
309       699013            0            0 462 0 0
311       692160            0            0 463 0 0
313       685307            0            0 464 0 0
315       678454            0            0 465 0 0
317       671601            0            0 466 0 0
319       664748            0            0 467 0 0
321       657895            0            0 468 0 0
323       651042            0            0 469 0 0
325       644189            0            0 470 0 0
327       637336            0            0 471 0 0
329       630482            0            0 472 0 0
331       623629            0            0 473 0 0
333       616776            0            0 474 0 0
335       609923            0            0 475 0 0
337       603070            0            0 476 0 0
339       596217            0            0 477 0 0
341       589364            0            0 478 0 0
343       582511            0            0 479 0 0
345       575658            0            0 480 0 0
347       568805            0            0 481 0 0
349       561952            0            0 482 0 0
351       555099            0            0 483 0 0
353       548246            0            0 484 0 0
355       541393            0            0 485 0 0
357       534539            0            0 486 0 0
359       527686            0            0 487 0 0
361       520833            0            0 488 0 0
363       513980            0            0 489 0 0
365       507127            0            0 490 0 0
367       500274            0            0 491 0 0
369       493421            0            0 492 0 0
371       486568            0            0 493 0 0
373       479715            0            0 494 0 0
375       472862            0            0 495 0 0
377       466009            0            0 496 0 0
379       459156            0            0 497 0 0
381       452303            0            0 498 0 0
383       445450            0            0 499 0 0
385       438596            0            0 500 0 0
387       431743            0            0 501 0 0
389       424890            0            0 502 0 0
391       418037            0            0 503 0 0
393       411184            0            0 504 0 0
395       404331            0            0 505 0 0
397       397478            0            0 506 0 0
399       390625            0            0 507 0 0
401       383772            0            0 508 0 0
403       376919            0            0 509 0 0
405       370066            0            0 510 0 0
407       363213            0            0 511 0 0
409       356360            0            0 512 0 0
411       349507            0            0 513 0 0
413       342654            0            0 514 0 0
415       340608            0            0 515 0 0
417       340608            0            0 516 0 0
419       340608            0            0 517 0 0
421       340608            0            0 518 0 0
423       340608            0            0 519 0 0
425       340608            0            0 520 0 0
427       340608            0            0 521 0 0
