# Pulseq sequence file
# Created by MATLAB mr toolbox

[VERSION]
major 1
minor 4
revision 1

[DEFINITIONS]
AdcRasterTime 1e-07 
Averages 1 
BlockDurationRaster 1e-05 
CalibrationACSSetID 4 
CalibrationAllSetsInRefscan 1 
CalibrationNSets 5 
CalibrationNacs 32 
CalibrationNcalib1 72 
CalibrationNcalib2 1 
CalibrationRefscanNLin 72 
CalibrationRefscanNPar 72 
CalibrationSlabRephaserSeparate 1 
CalibrationTE 0.0043125 
CalibrationTR 0.00894 
EncodedSlabThickness 0.18 
FOV 0.22 0.22 0.18 
FlipAngle 15 
GradientRasterTime 1e-05 
KspaceOrdering negative_to_positive 
Name gre_3d_wave_FC_FOV220x220x180_res0p88x0p88x2p5_E1_Ry3_Rz1_os4_amp8_cyc10_TRA_skyra 
Nechoes 1 
Nx 250 
Nx_os 1000 
Ny 250 
Ny_meas 83 
Nz 72 
Nz_meas 72 
OrientationMapping TRA 
PartitionResolution 0.352 
PhaseResolution 1 
RadiofrequencyRasterTime 1e-06 
ReadoutDuration 0.005 
ReadoutOversamplingFactor 4 
ReadoutPolarity monopolar 
ReceiverGainHigh 1 
Ry 3 
Rz 1 
SliceOversampling 0.125 
SliceThickness 0.16 
TE 0.02 
TR 0.03 
TargetFOV 0.22 0.22 0.16 
TotalDuration 203.13828 
UseFlowComp 1 
UseFullInitialFC 1 
UseFullInterEchoFC 0 
WaveAmplitude_mTm 8 
WaveCosChannel z 
WaveCycles 10 
WaveSinChannel y 
WaveSlew_Tms 200 
kSpaceCenterLine 125 
kSpaceCenterPartition 36 

# Format of blocks:
# NUM DUR RF  GX  GY  GZ  ADC  EXT
[BLOCKS]
    1 120   1   0   0 965  0  0
    2 1298   0   0   0 503  0  0
    3 380   0 640 766 927  0  0
    4 525   0 963   2   1  0  0
    5 677   0 964 254 572  0  0
    6 120   2   0   0 965  0  0
    7 1298   0   0   0 503  0  0
    8 380   0 640 766 927  0  0
    9 525   0 963   2   1  0  0
   10 677   0 964 254 572  0  0
   11 120   3   0   0 965  0  0
   12 1298   0   0   0 503  0  0
   13 380   0 640 766 927  0  0
   14 525   0 963   2   1  0  0
   15 677   0 964 254 572  0  0
   16 120   4   0   0 965  0  0
   17 1298   0   0   0 503  0  0
   18 380   0 640 766 927  0  0
   19 525   0 963   2   1  0  0
   20 677   0 964 254 572  0  0
   21 120   5   0   0 965  0  0
   22 1298   0   0   0 503  0  0
   23 380   0 640 766 927  0  0
   24 525   0 963   2   1  0  0
   25 677   0 964 254 572  0  0
   26 120   6   0   0 965  0  0
   27 1298   0   0   0 503  0  0
   28 380   0 640 766 927  0  0
   29 525   0 963   2   1  0  0
   30 677   0 964 254 572  0  0
   31 120   7   0   0 965  0  0
   32 1298   0   0   0 503  0  0
   33 380   0 640 766 927  0  0
   34 525   0 963   2   1  0  0
   35 677   0 964 254 572  0  0
   36 120   8   0   0 965  0  0
   37 1298   0   0   0 503  0  0
   38 380   0 640 766 927  0  0
   39 525   0 963   2   1  0  0
   40 677   0 964 254 572  0  0
   41 120   1   0   0 965  0  0
   42 1298   0   0   0 503  0  0
   43 380   0 640 766 927  0  0
   44 525   0 963   2   1  0  0
   45 677   0 964 254 572  0  0
   46 120   9   0   0 965  0  0
   47 1298   0   0   0 503  0  0
   48 380   0 640 766 927  0  0
   49 525   0 963   2   1  0  0
   50 677   0 964 254 572  0  0
   51 120  10   0   0 965  0  0
   52 1298   0   0   0 503  0  0
   53 380   0 640 766 927  0  0
   54 525   0 963   2   1  0  0
   55 677   0 964 254 572  0  0
   56 120  11   0   0 965  0  0
   57 1298   0   0   0 503  0  0
   58 380   0 640 766 927  0  0
   59 525   0 963   2   1  0  0
   60 677   0 964 254 572  0  0
   61 120   4   0   0 965  0  0
   62 1298   0   0   0 503  0  0
   63 380   0 640 766 927  0  0
   64 525   0 963   2   1  0  0
   65 677   0 964 254 572  0  0
   66 120  10   0   0 965  0  0
   67 1298   0   0   0 503  0  0
   68 380   0 640 766 927  0  0
   69 525   0 963   2   1  0  0
   70 677   0 964 254 572  0  0
   71 120  12   0   0 965  0  0
   72 1298   0   0   0 503  0  0
   73 380   0 640 766 927  0  0
   74 525   0 963   2   1  0  0
   75 677   0 964 254 572  0  0
   76 120  13   0   0 965  0  0
   77 1298   0   0   0 503  0  0
   78 380   0 640 766 927  0  0
   79 525   0 963   2   1  0  0
   80 677   0 964 254 572  0  0
   81 120   8   0   0 965  0  0
   82 1298   0   0   0 503  0  0
   83 380   0 640 766 927  0  0
   84 525   0 963   2   1  0  0
   85 677   0 964 254 572  0  0
   86 120   9   0   0 965  0  0
   87 1298   0   0   0 503  0  0
   88 380   0 640 766 927  0  0
   89 525   0 963   2   1  0  0
   90 677   0 964 254 572  0  0
   91 120  14   0   0 965  0  0
   92 1298   0   0   0 503  0  0
   93 380   0 640 766 927  0  0
   94 525   0 963   2   1  0  0
   95 677   0 964 254 572  0  0
   96 120   5   0   0 965  0  0
   97 1298   0   0   0 503  0  0
   98 380   0 640 766 927  0  0
   99 525   0 963   2   1  0  0
  100 677   0 964 254 572  0  0
  101 120  11   0   0 965  0  0
  102 1298   0   0   0 503  0  0
  103 380   0 640 766 927  0  0
  104 525   0 963   2   1  0  0
  105 677   0 964 254 572  0  0
  106 120   6   0   0 965  0  0
  107 1298   0   0   0 503  0  0
  108 380   0 640 766 927  0  0
  109 525   0 963   2   1  0  0
  110 677   0 964 254 572  0  0
  111 120   2   0   0 965  0  0
  112 1298   0   0   0 503  0  0
  113 380   0 640 766 927  0  0
  114 525   0 963   2   1  0  0
  115 677   0 964 254 572  0  0
  116 120  15   0   0 965  0  0
  117 1298   0   0   0 503  0  0
  118 380   0 640 766 927  0  0
  119 525   0 963   2   1  0  0
  120 677   0 964 254 572  0  0
  121 120  13   0   0 965  0  0
  122 1298   0   0   0 503  0  0
  123 380   0 640 766 927  0  0
  124 525   0 963   2   1  0  0
  125 677   0 964 254 572  0  0
  126 120   2   0   0 965  0  0
  127 1298   0   0   0 503  0  0
  128 380   0 640 766 927  0  0
  129 525   0 963   2   1  0  0
  130 677   0 964 254 572  0  0
  131 120  14   0   0 965  0  0
  132 1298   0   0   0 503  0  0
  133 380   0 640 766 927  0  0
  134 525   0 963   2   1  0  0
  135 677   0 964 254 572  0  0
  136 120  16   0   0 965  0  0
  137 1298   0   0   0 503  0  0
  138 380   0 640 766 927  0  0
  139 525   0 963   2   1  0  0
  140 677   0 964 254 572  0  0
  141 120   5   0   0 965  0  0
  142 1298   0   0   0 503  0  0
  143 380   0 640 766 927  0  0
  144 525   0 963   2   1  0  0
  145 677   0 964 254 572  0  0
  146 120   3   0   0 965  0  0
  147 1298   0   0   0 503  0  0
  148 380   0 640 766 927  0  0
  149 525   0 963   2   1  0  0
  150 677   0 964 254 572  0  0
  151 120  12   0   0 965  0  0
  152 1298   0   0   0 503  0  0
  153 380   0 640 766 927  0  0
  154 525   0 963   2   1  0  0
  155 677   0 964 254 572  0  0
  156 120   8   0   0 965  0  0
  157 1298   0   0   0 503  0  0
  158 380   0 640 766 927  0  0
  159 525   0 963   2   1  0  0
  160 677   0 964 254 572  0  0
  161 120  15   0   0 965  0  0
  162 1298   0   0   0 503  0  0
  163 380   0 640 766 927  0  0
  164 525   0 963   2   1  0  0
  165 677   0 964 254 572  0  0
  166 120   7   0   0 965  0  0
  167 1298   0   0   0 503  0  0
  168 380   0 640 766 927  0  0
  169 525   0 963   2   1  0  0
  170 677   0 964 254 572  0  0
  171 120  10   0   0 965  0  0
  172 1298   0   0   0 503  0  0
  173 380   0 640 766 927  0  0
  174 525   0 963   2   1  0  0
  175 677   0 964 254 572  0  0
  176 120  16   0   0 965  0  0
  177 1298   0   0   0 503  0  0
  178 380   0 640 766 927  0  0
  179 525   0 963   2   1  0  0
  180 677   0 964 254 572  0  0
  181 120  16   0   0 965  0  0
  182 1298   0   0   0 503  0  0
  183 380   0 640 766 927  0  0
  184 525   0 963   2   1  0  0
  185 677   0 964 254 572  0  0
  186 120  10   0   0 965  0  0
  187 1298   0   0   0 503  0  0
  188 380   0 640 766 927  0  0
  189 525   0 963   2   1  0  0
  190 677   0 964 254 572  0  0
  191 120   7   0   0 965  0  0
  192 1298   0   0   0 503  0  0
  193 380   0 640 766 927  0  0
  194 525   0 963   2   1  0  0
  195 677   0 964 254 572  0  0
  196 120  15   0   0 965  0  0
  197 1298   0   0   0 503  0  0
  198 380   0 640 766 927  0  0
  199 525   0 963   2   1  0  0
  200 677   0 964 254 572  0  0
  201 120   8   0   0 965  0  0
  202 1298   0   0   0 503  0  0
  203 380   0 640 766 927  0  0
  204 525   0 963   2   1  0  0
  205 677   0 964 254 572  0  0
  206 120  12   0   0 965  0  0
  207 1298   0   0   0 503  0  0
  208 380   0 640 766 927  0  0
  209 525   0 963   2   1  0  0
  210 677   0 964 254 572  0  0
  211 120   3   0   0 965  0  0
  212 1298   0   0   0 503  0  0
  213 380   0 640 766 927  0  0
  214 525   0 963   2   1  0  0
  215 677   0 964 254 572  0  0
  216 120   5   0   0 965  0  0
  217 1298   0   0   0 503  0  0
  218 380   0 640 766 927  0  0
  219 525   0 963   2   1  0  0
  220 677   0 964 254 572  0  0
  221 120  16   0   0 965  0  0
  222 1298   0   0   0 503  0  0
  223 380   0 640 766 927  0  0
  224 525   0 963   2   1  0  0
  225 677   0 964 254 572  0  0
  226 120  14   0   0 965  0  0
  227 1298   0   0   0 503  0  0
  228 380   0 640 766 927  0  0
  229 525   0 963   2   1  0  0
  230 677   0 964 254 572  0  0
  231 120   2   0   0 965  0  0
  232 1298   0   0   0 503  0  0
  233 380   0 640 766 927  0  0
  234 525   0 963   2   1  0  0
  235 677   0 964 254 572  0  0
  236 120  13   0   0 965  0  0
  237 1298   0   0   0 503  0  0
  238 380   0 640 766 927  0  0
  239 525   0 963   2   1  0  0
  240 677   0 964 254 572  0  0
  241 120  15   0   0 965  0  0
  242 1298   0   0   0 503  0  0
  243 380   0 640 766 927  0  0
  244 525   0 963   2   1  0  0
  245 677   0 964 254 572  0  0
  246 120   2   0   0 965  0  0
  247 1298   0   0   0 503  0  0
  248 380   0 640 766 927  0  0
  249 525   0 963   2   1  0  0
  250 677   0 964 254 572  0  0
  251 120   6   0   0 965  0  0
  252 1298   0   0   0 503  0  0
  253 380   0 640 766 927  0  0
  254 525   0 963   2   1  0  0
  255 677   0 964 254 572  0  0
  256 120  11   0   0 965  0  0
  257 1298   0   0   0 503  0  0
  258 380   0 640 766 927  0  0
  259 525   0 963   2   1  0  0
  260 677   0 964 254 572  0  0
  261 120   5   0   0 965  0  0
  262 1298   0   0   0 503  0  0
  263 380   0 640 766 927  0  0
  264 525   0 963   2   1  0  0
  265 677   0 964 254 572  0  0
  266 120  14   0   0 965  0  0
  267 1298   0   0   0 503  0  0
  268 380   0 640 766 927  0  0
  269 525   0 963   2   1  0  0
[RF]
1      835.829 329 330 0 100 0 0
2      835.829 329 330 0 100 0 0.872665
3      835.829 329 330 0 100 0 2.61799
4      835.829 329 330 0 100 0 5.23599
5      835.829 329 330 0 100 0 2.44346
6      835.829 329 330 0 100 0 0.523599
7      835.829 329 330 0 100 0 5.75959
8      835.829 329 330 0 100 0 5.58505
9      835.829 329 330 0 100 0 1.5708
10      835.829 329 330 0 100 0 4.01426
11      835.829 329 330 0 100 0 1.0472
12      835.829 329 330 0 100 0 3.66519
13      835.829 329 330 0 100 0 4.18879
14      835.829 329 330 0 100 0 4.71239
15      835.829 329 330 0 100 0 2.0944
16      835.829 329 330 0 100 0 3.14159

# Format of arbitrary gradients:
#   time_shape_id of 0 means default timing (stepping with grad_raster starting at 1/2 of grad_raster)
# id amplitude amp_shape_id time_shape_id delay
# ..      Hz/m       ..         ..          us
[GRADIENTS]
1       340608 1 0 0
2       339936 2 0 0
503      -597921 3 4 0
640       829591 5 6 0
641  1.05087e+06 7 6 0
642  1.04227e+06 8 6 0
643  1.03367e+06 9 6 0
644  1.02507e+06 10 6 0
645  1.01647e+06 11 6 0
646  1.00787e+06 12 6 0
647       999276 13 6 0
648       990678 14 6 0
649       982080 15 6 0
650       973482 16 6 0
651       964884 17 6 0
652       956286 18 6 0
653       947687 19 6 0
654       939089 20 6 0
655       930491 21 6 0
656       921893 22 6 0
657       913295 23 6 0
658       904697 24 6 0
659       896099 25 6 0
660       887500 26 6 0
661       878902 27 6 0
662       870304 28 6 0
663       861706 29 6 0
664       853108 30 6 0
665       844510 31 6 0
666       835911 32 6 0
667       827313 33 6 0
668       818715 34 6 0
669       810117 35 6 0
670       801519 36 6 0
671       792921 37 6 0
672       784322 38 6 0
673       775724 39 6 0
674       767126 40 6 0
675       758528 41 6 0
676       749930 42 6 0
677       741332 43 6 0
678       732734 44 6 0
679       724135 45 6 0
680       715537 46 6 0
681       706939 47 6 0
682       698341 48 6 0
683       689743 49 6 0
684       681145 50 6 0
685       672546 51 6 0
686       663948 52 6 0
687       655350 53 6 0
688       646752 54 6 0
689       638154 55 6 0
690       629556 56 6 0
691       620958 57 6 0
692       612359 58 6 0
693       603761 59 6 0
694       595163 60 6 0
695       586565 61 6 0
696       577967 62 6 0
697       569369 63 6 0
698       560770 64 6 0
699       552172 65 6 0
700       543574 66 6 0
701       534976 67 6 0
702       526378 68 6 0
703       517780 69 6 0
704       509182 70 6 0
705       500583 71 6 0
706       491985 72 6 0
707       483387 73 6 0
708       474789 74 6 0
709       466191 75 6 0
710       457593 76 6 0
711       448994 77 6 0
712       440396 78 6 0
713       431798 79 6 0
714       423200 80 6 0
715       414602 81 6 0
716       406004 82 6 0
717       397405 83 6 0
718       388807 84 6 0
719       380209 85 6 0
720       371611 86 6 0
721       363013 87 6 0
722       354415 88 6 0
723       345817 89 6 0
724       337218 90 6 0
725       328620 91 6 0
726       320022 92 6 0
727       311424 93 6 0
728       302826 94 6 0
729       294228 95 6 0
730       285629 96 6 0
731       277031 97 6 0
732       268433 98 6 0
733       259835 99 6 0
734       251237 100 6 0
735       242639 101 6 0
736       234041 102 6 0
737       225442 103 6 0
738       216844 104 6 0
739       208246 105 6 0
740       199648 106 6 0
741       191050 107 6 0
742       182452 108 6 0
743       173853 109 6 0
744       165255 110 6 0
745       156657 111 6 0
746       148059 112 6 0
747       139461 113 6 0
748       130863 114 6 0
749       122265 115 6 0
750       113666 116 6 0
751       105068 117 6 0
752        96470 118 6 0
753      87871.9 119 6 0
754      79273.7 120 6 0
755      70675.6 121 6 0
756      62077.4 122 6 0
757      53479.3 123 6 0
758      44881.1 124 6 0
759        36283 125 6 0
760      27684.8 126 6 0
761      19086.6 127 6 0
762     -10488.5 128 6 0
763     -6154.72 129 6 0
764     -12071.2 130 6 0
765     -17987.7 131 6 0
766     -23904.1 132 6 0
767     -32502.3 133 6 0
768     -41100.4 134 6 0
769     -49698.6 135 6 0
770     -58296.8 136 6 0
771     -66894.9 137 6 0
772     -75493.1 138 6 0
773     -84091.2 139 6 0
774     -92689.4 140 6 0
775      -101288 141 6 0
776      -109886 142 6 0
777      -118484 143 6 0
778      -127082 144 6 0
779      -135680 145 6 0
780      -144278 146 6 0
781      -152876 147 6 0
782      -161475 148 6 0
783      -170073 149 6 0
784      -178671 150 6 0
785      -187269 151 6 0
786      -195867 152 6 0
787      -204465 153 6 0
788      -213064 154 6 0
789      -221662 155 6 0
790      -230260 156 6 0
791      -238858 157 6 0
792      -247456 158 6 0
793      -256054 159 6 0
794      -264652 160 6 0
795      -273251 161 6 0
796      -281849 162 6 0
797      -290447 163 6 0
798      -299045 164 6 0
799      -307643 165 6 0
800      -316241 166 6 0
801      -324840 167 6 0
802      -333438 168 6 0
803      -342036 169 6 0
804      -350634 170 6 0
805      -359232 171 6 0
806      -367830 172 6 0
807      -376429 173 6 0
808      -385027 174 6 0
809      -393625 175 6 0
810      -402223 176 6 0
811      -410821 177 6 0
812      -419419 178 6 0
813      -428017 179 6 0
814      -436616 180 6 0
815      -445214 181 6 0
816      -453812 182 6 0
817      -462410 183 6 0
818      -471008 184 6 0
819      -479606 185 6 0
820      -488205 186 6 0
821      -496803 187 6 0
822      -505401 188 6 0
823      -513999 189 6 0
824      -522597 190 6 0
825      -531195 191 6 0
826      -539793 192 6 0
827      -548392 193 6 0
828      -556990 194 6 0
829      -565588 195 6 0
830      -574186 196 6 0
831      -582784 197 6 0
832      -591382 198 6 0
833      -599981 199 6 0
834      -608579 200 6 0
835      -617177 201 6 0
836      -625775 202 6 0
837      -634373 203 6 0
838      -642971 204 6 0
839      -651569 205 6 0
840      -660168 206 6 0
841      -668766 207 6 0
842      -677364 208 6 0
843      -685962 209 6 0
844      -694560 210 6 0
845      -703158 211 6 0
846      -711757 212 6 0
847      -720355 213 6 0
848      -728953 214 6 0
849      -737551 215 6 0
850      -746149 216 6 0
851      -754747 217 6 0
852      -763346 218 6 0
853      -771944 219 6 0
854      -780542 220 6 0
855      -789140 221 6 0
856      -797738 222 6 0
857      -806336 223 6 0
858      -814934 224 6 0
859      -823533 225 6 0
860      -832131 226 6 0
861      -840729 227 6 0
862      -849327 228 6 0
863      -857925 229 6 0
864      -866523 230 6 0
865      -875122 231 6 0
866      -883720 232 6 0
867      -892318 233 6 0
868      -900916 234 6 0
869      -909514 235 6 0
870      -918112 236 6 0
871      -926710 237 6 0
872      -935309 238 6 0
873      -943907 239 6 0
874      -952505 240 6 0
875      -961103 241 6 0
876      -969701 242 6 0
877      -978299 243 6 0
878      -986898 244 6 0
879      -995496 245 6 0
880 -1.00409e+06 246 6 0
881 -1.01269e+06 247 6 0
882 -1.02129e+06 248 6 0
883 -1.02989e+06 249 6 0
884 -1.03849e+06 250 6 0
885 -1.04708e+06 251 6 0
886 -1.05568e+06 252 6 0
887 -1.06428e+06 253 6 0
888 -1.07288e+06 254 6 0
889 -1.08148e+06 255 6 0
890 -1.09008e+06 256 6 0
891       398759 257 6 0
892       388250 258 6 0
893       377741 259 6 0
894       367232 260 6 0
895       356723 261 6 0
896       346215 262 6 0
897       335706 263 6 0
898       325197 264 6 0
899       314688 265 6 0
900       304179 266 6 0
901       293670 267 6 0
902       283161 268 6 0
903       272653 269 6 0
904       262144 270 6 0
905       251635 271 6 0
906       241126 272 6 0
907       230617 273 6 0
908       220108 274 6 0
909       209599 275 6 0
910       199091 276 6 0
911       188582 277 6 0
912       178073 278 6 0
913       167564 279 6 0
914       157055 280 6 0
915       146546 281 6 0
916       136037 282 6 0
917       125529 283 6 0
918       115020 284 6 0
919       104511 285 6 0
920      94002.1 286 6 0
921      83493.2 287 6 0
922      72984.3 288 6 0
923      62475.5 289 6 0
924      51966.6 290 6 0
925      41457.8 291 6 0
926      30948.9 292 6 0
927      20440.1 293 6 0
928      9931.21 294 6 0
929     -6581.71 295 6 0
930       -13813 296 6 0
931     -21595.4 297 6 0
932     -32104.2 298 6 0
933     -42613.1 299 6 0
934     -53121.9 300 6 0
935     -63630.8 301 6 0
936     -74139.6 302 6 0
937     -84648.5 303 6 0
938     -95157.4 304 6 0
939      -105666 305 6 0
940      -116175 306 6 0
941      -126684 307 6 0
942      -137193 308 6 0
943      -147702 309 6 0
944      -158210 310 6 0
945      -168719 311 6 0
946      -179228 312 6 0
947      -189737 313 6 0
948      -200246 314 6 0
949      -210755 315 6 0
950      -221264 316 6 0
951      -231772 317 6 0
952      -242281 318 6 0
953      -252790 319 6 0
954      -263299 320 6 0
955      -273808 321 6 0
956      -284317 322 6 0
957      -294826 323 6 0
958      -305334 324 6 0
959      -315843 325 6 0
960      -326352 326 6 0
961      -336861 327 6 0
962      -347370 328 6 0
968      -603235 331 0 0
969       775771 332 333 0
972      -591158 334 0 0
973       775896 335 336 0
976      -579081 337 0 0
977       776028 338 339 0
980      -567004 340 0 0
981       740620 341 342 0
984      -554926 343 0 0
985       739873 344 345 0
988      -542849 346 0 0
989       739087 347 348 0
992      -530772 349 0 0
993       711371 350 351 0
996      -518694 352 0 0
997       709772 353 354 0
1000      -506617 355 0 0
1001       708086 356 357 0
1004      -494540 358 0 0
1005       706302 359 360 0
1008      -482463 361 0 0
1009       646357 362 363 0
1012      -470385 364 0 0
1013       651698 365 366 0
1016      -458308 367 0 0
1017       648098 368 369 0
1020      -446231 370 0 0
1021       644273 371 372 0
1024      -434153 373 0 0
1025       620195 374 375 0
1028      -422076 376 0 0
1029       615346 377 378 0
1032      -409999 379 0 0
1033       619470 380 381 0
1036      -397921 382 0 0
1037       557665 383 384 0
1040      -385844 385 0 0
1041       524747 386 387 0
1044      -373767 388 0 0
1045       522546 389 390 0
1048      -361690 391 0 0
1049       495028 392 393 0
1052      -349612 394 0 0
1053       496363 395 396 0
1056      -340608 397 0 0
1057       465543 398 399 0
1060      -340608 400 0 0
1061       434722 401 402 0
1064      -340608 403 0 0
1065       428016 404 405 0
1068      -340608 406 0 0
1069       466353 407 408 0
1072      -340608 409 0 0
1073       432418 410 411 0
1076      -340608 412 0 0
1077       372272 413 414 0
1080      -340608 415 0 0
1081       340608 416 417 0
1084      -340608 418 0 0
1085       370922 419 420 0
1088      -340608 421 0 0
1089       342380 422 423 0
1092      -340608 424 0 0
1093       340608 425 426 0
1096      -340608 427 0 0
1097       340608 428 429 0
1100      -340608 430 0 0
1101       340608 431 432 0
1104      -340608 433 0 0
1105       340608 434 435 0
1108      -340608 436 0 0
1109       340608 437 438 0
1112      -340608 439 0 0
1113       340608 440 441 0
1116      -340608 442 0 0
1117       340608 443 444 0
1120      -340608 445 0 0
1121       340608 446 447 0
1124      -340608 448 0 0
1125       343395 449 450 0
1128      -340608 451 0 0
1129       374182 452 453 0
1132      -340608 454 0 0
1133       403305 455 456 0
1136      -340608 457 0 0
1137       400835 458 459 0
1140      -340608 460 0 0
1141       426466 461 462 0
1144      -340608 463 0 0
1145       461874 464 465 0
1148      -340608 466 0 0
1149       466231 467 468 0
1152      -340608 469 0 0
1153       488629 470 471 0
1156      -340608 472 0 0
1157       491538 473 474 0
1160      -340608 475 0 0
1161       523098 476 477 0
1164      -340608 478 0 0
1165       524450 479 480 0
1168       340608 481 0 0
1169       554694 482 483 0
1172       340608 484 0 0
1173       554729 485 486 0
1176       340608 487 0 0
1177       583763 488 489 0
1180       340608 490 0 0
1181       582678 491 492 0
1184       340608 493 0 0
1185       610596 494 495 0
1188       340608 496 0 0
1189       620039 497 498 0
1192       340608 499 0 0
1193       647430 500 501 0
1196       340608 502 0 0
1197       644089 503 504 0
1200       340608 505 0 0
1201       652429 506 507 0
1204       340608 508 0 0
1205       678353 509 510 0
1208       340608 511 0 0
1209       674118 512 513 0
1212       340608 514 0 0
1213       711414 515 516 0
1216       340608 517 0 0
1217       706130 518 519 0
1220       340608 520 0 0
1221       712880 521 522 0
1224       340608 523 0 0
1225       737075 524 525 0
1228       340608 526 0 0
1229       743207 527 528 0
1232       340608 529 0 0
1233       767006 530 531 0
1236       340608 532 0 0
1237       772556 533 534 0
1240       340608 535 0 0
1241       777930 536 537 0
1244       340608 538 0 0
1245       800973 539 540 0
1248       340608 541 0 0
1249       805819 542 543 0
1252       340608 544 0 0
1253       798235 545 546 0
1256 -1.15955e+06 547 0 0
1259 -1.15028e+06 548 0 0
1262   -1.141e+06 549 0 0
1265 -1.13173e+06 550 0 0
1268 -1.12245e+06 551 0 0
1272 -1.11317e+06 552 0 0
1276  -1.1039e+06 553 0 0
1280 -1.09462e+06 554 0 0
1284 -1.08534e+06 555 0 0
1288 -1.07607e+06 556 0 0
1292 -1.06679e+06 557 0 0
1296 -1.05751e+06 558 0 0
1300 -1.04824e+06 559 0 0
1304 -1.03896e+06 560 0 0
1308 -1.02968e+06 561 0 0
1312 -1.02041e+06 562 0 0
1316 -1.01113e+06 563 0 0
1320 -1.00186e+06 564 0 0
1324      -992579 565 0 0
1328      -983302 566 0 0
1332      -974026 567 0 0
1336      -964750 568 0 0
1340      -955473 569 0 0
1344      -946197 570 0 0
1348      -936920 571 0 0
1352      -927644 572 0 0
1356      -918367 573 0 0
1360      -909091 574 0 0
1364      -899814 575 0 0
1368      -890538 576 0 0
1372      -881262 577 0 0
1376      -871985 578 0 0
1380      -862709 579 0 0
1384      -853432 580 0 0
1388      -844156 581 0 0
1392      -834879 582 0 0
1396      -825603 583 0 0
1400      -816327 584 0 0
1404      -807050 585 0 0
1408      -797774 586 0 0
1412      -788497 587 0 0
1416      -779221 588 0 0
1420      -769944 589 0 0
1424      -760668 590 0 0
1428      -751391 591 0 0
1432      -742115 592 0 0
1436      -732839 593 0 0
1440      -723562 594 0 0
1444      -714286 595 0 0
1448      -705009 596 0 0
1452      -695733 597 0 0
1456      -686456 598 0 0
1460      -677180 599 0 0
1464      -667904 600 0 0
1468      -658627 601 0 0
1472      -649351 602 0 0
1476      -640074 603 0 0
1480      -630798 604 0 0
1484      -621521 605 0 0
1488      -612245 606 0 0
1492      -602968 607 0 0
1496      -593692 608 0 0
1500      -584416 609 0 0
1504      -575139 610 0 0
1508      -565863 611 0 0
1512      -556586 612 0 0
1516      -547310 613 0 0
1520      -538033 614 0 0
1524      -528757 615 0 0
1528      -519481 616 0 0
1532      -510204 617 0 0
1536      -500928 618 0 0
1540      -491651 619 0 0
1544      -482375 620 0 0
1548      -473098 621 0 0
1552      -463822 622 0 0
1556      -454545 623 0 0
1560      -445269 624 0 0
1564      -435993 625 0 0
1568      -426716 626 0 0
1572      -417440 627 0 0
1576      -408163 628 0 0
1579      -398887 629 0 0
1583      -389610 630 0 0
1587      -380334 631 0 0
1591      -371058 632 0 0
1595      -361781 633 0 0
1599      -352505 634 0 0
1603      -343228 635 0 0
1607      -339936 636 0 0
1611      -339936 637 0 0
1615      -339936 638 0 0
1619      -339936 639 0 0
1623      -339936 640 0 0
1627      -339936 641 0 0
1631      -339936 642 0 0
1635      -339936 643 0 0
1639      -339936 644 0 0
1643      -339936 645 0 0
1647      -339936 646 0 0
1651      -339936 647 0 0
1655      -339936 648 0 0
1659      -339936 649 0 0
1663      -339936 650 0 0
1667      -339936 651 0 0
1671      -339936 652 0 0
1675      -339936 653 0 0
1679      -339936 654 0 0
1683      -339936 655 0 0
1687      -339936 656 0 0
1691      -339936 657 0 0
1695      -339936 658 0 0
1699      -339936 659 0 0
1703      -339936 660 0 0
1707      -339936 661 0 0
1711      -339936 662 0 0
1715      -339936 663 0 0
1719      -339936 664 0 0
1723      -339936 665 0 0
1727      -339936 666 0 0
1731      -339936 667 0 0
1735      -339936 668 0 0
1739      -339936 669 0 0
1743      -339936 670 0 0
1747      -339936 671 0 0
1751       339936 672 0 0
1755       339936 673 0 0
1759       339936 674 0 0
1763       339936 675 0 0
1767       339936 676 0 0
1771       339936 677 0 0
1775       339936 678 0 0
1779       339936 679 0 0
1783       339936 680 0 0
1787       339936 681 0 0
1791       339936 682 0 0
1795       339936 683 0 0
1799       339936 684 0 0
1803       339936 685 0 0
1807       339936 686 0 0
1811       339936 687 0 0
1815       339936 688 0 0
1819       339936 689 0 0
1823       339936 690 0 0
1827       339936 691 0 0
1831       339936 692 0 0
1835       339936 693 0 0
1839       339936 694 0 0
1843       339936 695 0 0
1847       339936 696 0 0
1851       339936 697 0 0
1855       339936 698 0 0
1859       339936 699 0 0
1863       339936 700 0 0
1867       339936 701 0 0
1871       339936 702 0 0
1875       339936 703 0 0
1879       339936 704 0 0
1883       339936 705 0 0
1887       339936 706 0 0
1891       339936 707 0 0
1895       339936 708 0 0
1899       343228 709 0 0
1903       352505 710 0 0
1907       361781 711 0 0
1911       371058 712 0 0
1915       380334 713 0 0
1919       389610 714 0 0
1923       398887 715 0 0
1927       408163 716 0 0
1931       417440 717 0 0
1935       426716 718 0 0
1939       435993 719 0 0
1943       445269 720 0 0
1947       454545 721 0 0
1951       463822 722 0 0
1955       473098 723 0 0
1959       482375 724 0 0
1963       491651 725 0 0
1967       500928 726 0 0
1971       510204 727 0 0
1975       519481 728 0 0
1979       528757 729 0 0
1983       538033 730 0 0
1987       547310 731 0 0
1991       556586 732 0 0
1995       565863 733 0 0
1999       575139 734 0 0
2003       584416 735 0 0
2007       593692 736 0 0
2011       602968 737 0 0
2015       612245 738 0 0
2019       621521 739 0 0
2023       630798 740 0 0
2027       640074 741 0 0
2031       649351 742 0 0
2035       658627 743 0 0
2039       667904 744 0 0
2043       677180 745 0 0
2047       686456 746 0 0
2051       695733 747 0 0
2055       705009 748 0 0
2059       714286 749 0 0
2063       723562 750 0 0
2067       732839 751 0 0
2071       742115 752 0 0
2075       751391 753 0 0
2079       760668 754 0 0
2083       769944 755 0 0
2087       779221 756 0 0
2091       788497 757 0 0
2095       797774 758 0 0
2099       807050 759 0 0
2103       816327 760 0 0
2107       825603 761 0 0
2111       834879 762 0 0
2115       844156 763 0 0
2119       853432 764 0 0
2123       862709 765 0 0
2127       871985 766 0 0
2131       881262 767 0 0
2135       890538 768 0 0
2139       899814 769 0 0
2143       909091 770 0 0
2147       918367 771 0 0
2151       927644 772 0 0
2155       936920 773 0 0
2159       946197 774 0 0
2163       955473 775 0 0
2167       964750 776 0 0
2171       974026 777 0 0
2175       983302 778 0 0
2179       992579 779 0 0
2183  1.00186e+06 780 0 0
2187  1.01113e+06 781 0 0
2191  1.02041e+06 782 0 0
2195  1.02968e+06 783 0 0
2199  1.03896e+06 784 0 0
2203  1.04824e+06 785 0 0
2207  1.05751e+06 786 0 0
2211  1.06679e+06 787 0 0
2215  1.07607e+06 788 0 0
2219  1.08534e+06 789 0 0
2223  1.09462e+06 790 0 0
2227   1.1039e+06 791 0 0
2231  1.11317e+06 792 0 0
2235  1.12245e+06 793 0 0
2239  1.13173e+06 794 0 0
2242    1.141e+06 795 0 0
2245  1.15028e+06 796 0 0
2246  -1.2222e+06 797 798 0
2247  1.61308e+06 799 800 0

# Format of trapezoid gradients:
# id amplitude rise flat fall delay
# ..      Hz/m   us   us   us    us
[TRAP]
 3 -1.03306e+06 330  220 330   0
 4       313913 100 1710 100   0
 5 -1.02479e+06 330  220 330   0
 6       311401 100 1710 100   0
 7      -998377 320  240 320   0
 8       308890 100 1710 100   0
 9      -972887 310  260 310   0
10       306379 100 1710 100   0
11      -964912 310  260 310   0
12       303867 100 1710 100   0
13      -940439 300  280 300   0
14       301356 100 1710 100   0
15      -932602 300  280 300   0
16       298845 100 1710 100   0
17      -909091 290  300 290   0
18       296334 100 1710 100   0
