# Pulseq sequence file
# Created by MATLAB mr toolbox

[VERSION]
major 1
minor 4
revision 1

[DEFINITIONS]
ACS_Pairs 0 
AdcRasterTime 1e-07 
BlockDurationRaster 1e-05 
ETL_Blocks_IMG 73 
ETL_CenterSlot 86 
ETL_DummySlots_IMG 0 
ETL_Efficiency_IMG 1 
ETL_FillerPerKy_IMG 0 
ETL_Mode_IMG dummy 
ETL_RealSlots_IMG 12556 
ETL_SegLen_IMG 172 
ETL_SegmentsPerBlock_IMG 1 
ETL_SegmentsPerKy_IMG 1 
ETL_Target 172 
FOV 0.172 0.22 0.256 
FlipAngle 7 
GradientRasterTime 1e-05 
Name mprage_3d_wave_sin_cos_172x220x256_res1x1x1mm_ETL172_dummy_R1_1_R2_3_ACS1_0_ACS2_0_os4_amp8_cycles10_SAG_prisma 
Nx 172 
Ny 220 
Nz 256 
OrientationMapping SAG 
PE1_ACS 0 
PE1_ACSTargetLines 0 
PE1_ImgLines 172 
PE1_R 1 
PE2_ACS 0 
PE2_ACSTargetLines 0 
PE2_ImgLines 73 
PE2_R 3 
PhaseResolution 1 
RadiofrequencyRasterTime 1e-06 
ReadoutOversamplingFactor 4 
ReceiverGainHigh 1 
RequestedResolutionX_mm 1 
RequestedResolutionY_mm 1 
RequestedResolutionZ_mm 1 
ResolutionX_mm 1 
ResolutionY_mm 1 
ResolutionZ_mm 1 
SliceThickness 0.001 
TR 2.5 
TotalDuration 182.5 
kSpaceCenterLine 110 
kSpaceCenterPartition 86 
ro_os 4 

# Format of blocks:
# NUM DUR RF  GX  GY  GZ  ADC  EXT
[BLOCKS]
    1 1044   2   0   0   0  0  0
    2 44063   0   0 785   0  0  0
    3 157   1   0   0   0  0  0
    4 602   0   1 349 787  1  5
    5 157   3   2 350 786  0  0
    6 602   0   3 349 787  2  8
    7 157   4   4 350 786  0  0
    8 602   0   5 349 787  3  9
    9 157   5   6 350 786  0  0
   10 602   0   7 349 787  4 10
   11 157   6   8 350 786  0  0
   12 602   0   9 349 787  5 11
   13 157   7  10 350 786  0  0
   14 602   0  11 349 787  6 12
   15 157   8  12 350 786  0  0
   16 602   0  13 349 787  7 13
   17 157   9  14 350 786  0  0
   18 602   0  15 349 787  8 14
   19 157   1  16 350 786  0  0
   20 602   0  17 349 787  1 15
   21 157  10  18 350 786  0  0
   22 602   0  19 349 787  9 16
   23 157  11  20 350 786  0  0
   24 602   0  21 349 787 10 17
   25 157  12  22 350 786  0  0
   26 602   0  23 349 787 11 18
   27 157   5  24 350 786  0  0
   28 602   0  25 349 787  4 19
   29 157  11  26 350 786  0  0
   30 602   0  27 349 787 10 20
   31 157  13  28 350 786  0  0
   32 602   0  29 349 787 12 21
   33 157  14  30 350 786  0  0
   34 602   0  31 349 787 13 22
   35 157   9  32 350 786  0  0
   36 602   0  33 349 787  8 23
   37 157  10  34 350 786  0  0
   38 602   0  35 349 787  9 24
   39 157  15  36 350 786  0  0
   40 602   0  37 349 787 14 25
   41 157   6  38 350 786  0  0
   42 602   0  39 349 787  5 26
   43 157  12  40 350 786  0  0
   44 602   0  41 349 787 11 27
   45 157   7  42 350 786  0  0
   46 602   0  43 349 787  6 28
   47 157   3  44 350 786  0  0
   48 602   0  45 349 787  2 29
   49 157  16  46 350 786  0  0
   50 602   0  47 349 787 15 30
   51 157  14  48 350 786  0  0
   52 602   0  49 349 787 13 31
   53 157   3  50 350 786  0  0
   54 602   0  51 349 787  2 32
   55 157  15  52 350 786  0  0
   56 602   0  53 349 787 14 33
   57 157  17  54 350 786  0  0
   58 602   0  55 349 787 16 34
   59 157   6  56 350 786  0  0
   60 602   0  57 349 787  5 35
   61 157   4  58 350 786  0  0
   62 602   0  59 349 787  3 36
   63 157  13  60 350 786  0  0
   64 602   0  61 349 787 12 37
   65 157   9  62 350 786  0  0
   66 602   0  63 349 787  8 38
   67 157  16  64 350 786  0  0
   68 602   0  65 349 787 15 39
   69 157   8  66 350 786  0  0
   70 602   0  67 349 787  7 40
   71 157  11  68 350 786  0  0
   72 602   0  69 349 787 10 41
   73 157  17  70 350 786  0  0
   74 602   0  71 349 787 16 42
   75 157  17  72 350 786  0  0
   76 602   0  73 349 787 16 43
   77 157  11  74 350 786  0  0
   78 602   0  75 349 787 10 44
   79 157   8  76 350 786  0  0
   80 602   0  77 349 787  7 45
   81 157  16  78 350 786  0  0
   82 602   0  79 349 787 15 46
   83 157   9  80 350 786  0  0
   84 602   0  81 349 787  8 47
   85 157  13  82 350 786  0  0
   86 602   0  83 349 787 12 48
   87 157   4  84 350 786  0  0
   88 602   0  85 349 787  3 49
   89 157   6  86 350 786  0  0
   90 602   0  87 349 787  5 50
   91 157  17  88 350 786  0  0
   92 602   0  89 349 787 16 51
   93 157  15  90 350 786  0  0
   94 602   0  91 349 787 14 52
   95 157   3  92 350 786  0  0
   96 602   0  93 349 787  2 53
   97 157  14  94 350 786  0  0
   98 602   0  95 349 787 13 54
   99 157  16  96 350 786  0  0
  100 602   0  97 349 787 15 55
  101 157   3  98 350 786  0  0
  102 602   0  99 349 787  2 56
  103 157   7 100 350 786  0  0
  104 602   0 101 349 787  6 57
  105 157  12 102 350 786  0  0
  106 602   0 103 349 787 11 58
  107 157   6 104 350 786  0  0
  108 602   0 105 349 787  5 59
  109 157  15 106 350 786  0  0
  110 602   0 107 349 787 14 60
  111 157  10 108 350 786  0  0
  112 602   0 109 349 787  9 61
  113 157   9 110 350 786  0  0
  114 602   0 111 349 787  8 62
  115 157  14 112 350 786  0  0
  116 602   0 113 349 787 13 63
  117 157  13 114 350 786  0  0
  118 602   0 115 349 787 12 64
  119 157  11 116 350 786  0  0
  120 602   0 117 349 787 10 65
  121 157   5 118 350 786  0  0
  122 602   0 119 349 787  4 66
  123 157  12 120 350 786  0  0
  124 602   0 121 349 787 11 67
  125 157  11 122 350 786  0  0
  126 602   0 123 349 787 10 68
  127 157  10 124 350 786  0  0
  128 602   0 125 349 787  9 69
  129 157   1 126 350 786  0  0
  130 602   0 127 349 787  1 70
  131 157   9 128 350 786  0  0
  132 602   0 129 349 787  8 71
  133 157   8 130 350 786  0  0
  134 602   0 131 349 787  7 72
  135 157   7 132 350 786  0  0
  136 602   0 133 349 787  6 73
  137 157   6 134 350 786  0  0
  138 602   0 135 349 787  5 74
  139 157   5 136 350 786  0  0
  140 602   0 137 349 787  4 75
  141 157   4 138 350 786  0  0
  142 602   0 139 349 787  3 76
  143 157   3 140 350 786  0  0
  144 602   0 141 349 787  2 77
  145 157   1 142 350 786  0  0
  146 602   0 143 349 787  1 78
  147 157   1 144 350 786  0  0
  148 602   0 145 349 787  1 79
  149 157   3 146 350 786  0  0
  150 602   0 147 349 787  2 80
  151 157   4 148 350 786  0  0
  152 602   0 149 349 787  3 81
  153 157   5 150 350 786  0  0
  154 602   0 151 349 787  4 82
  155 157   6 152 350 786  0  0
  156 602   0 153 349 787  5 83
  157 157   7 154 350 786  0  0
  158 602   0 155 349 787  6 84
  159 157   8 156 350 786  0  0
  160 602   0 157 349 787  7 85
  161 157   9 158 350 786  0  0
  162 602   0 159 349 787  8 86
  163 157   1 160 350 786  0  0
  164 602   0 161 349 787  1 87
  165 157  10 162 350 786  0  0
  166 602   0 163 349 787  9 88
  167 157  11 164 350 786  0  0
  168 602   0 165 349 787 10 89
  169 157  12 166 350 786  0  0
  170 602   0 167 349 787 11 90
  171 157   5 168 350 786  0  0
  172 602   0 169 349 787  4 91
  173 157  11 170 350 786  0  0
  174 602   0 171 349 787 10 92
  175 157  13 172 350 786  0  0
  176 602   0 173 349 787 12 93
  177 157  14 174 350 786  0  0
  178 602   0 175 349 787 13 94
  179 157   9 176 350 786  0  0
  180 602   0 177 349 787  8 95
  181 157  10 178 350 786  0  0
  182 602   0 179 349 787  9 96
  183 157  15 180 350 786  0  0
  184 602   0 181 349 787 14 97
  185 157   6 182 350 786  0  0
  186 602   0 183 349 787  5 98
  187 157  12 184 350 786  0  0
  188 602   0 185 349 787 11 99
  189 157   7 186 350 786  0  0
  190 602   0 187 349 787  6 100
  191 157   3 188 350 786  0  0
  192 602   0 189 349 787  2 101
  193 157  16 190 350 786  0  0
  194 602   0 191 349 787 15 102
  195 157  14 192 350 786  0  0
  196 602   0 193 349 787 13 103
  197 157   3 194 350 786  0  0
  198 602   0 195 349 787  2 104
  199 157  15 196 350 786  0  0
  200 602   0 197 349 787 14 105
  201 157  17 198 350 786  0  0
  202 602   0 199 349 787 16 106
  203 157   6 200 350 786  0  0
  204 602   0 201 349 787  5 107
  205 157   4 202 350 786  0  0
  206 602   0 203 349 787  3 108
  207 157  13 204 350 786  0  0
  208 602   0 205 349 787 12 109
  209 157   9 206 350 786  0  0
  210 602   0 207 349 787  8 110
  211 157  16 208 350 786  0  0
  212 602   0 209 349 787 15 111
  213 157   8 210 350 786  0  0
  214 602   0 211 349 787  7 112
  215 157  11 212 350 786  0  0
  216 602   0 213 349 787 10 113
  217 157  17 214 350 786  0  0
  218 602   0 215 349 787 16 114
  219 157  17 216 350 786  0  0
  220 602   0 217 349 787 16 115
  221 157  11 218 350 786  0  0
  222 602   0 219 349 787 10 116
  223 157   8 220 350 786  0  0
  224 602   0 221 349 787  7 117
  225 157  16 222 350 786  0  0
  226 602   0 223 349 787 15 118
  227 157   9 224 350 786  0  0
  228 602   0 225 349 787  8 119
  229 157  13 226 350 786  0  0
  230 602   0 227 349 787 12 120
  231 157   4 228 350 786  0  0
  232 602   0 229 349 787  3 121
  233 157   6 230 350 786  0  0
  234 602   0 231 349 787  5 122
  235 157  17 232 350 786  0  0
  236 602   0 233 349 787 16 123
  237 157  15 234 350 786  0  0
  238 602   0 235 349 787 14 124
  239 157   3 236 350 786  0  0
  240 602   0 237 349 787  2 125
  241 157  14 238 350 786  0  0
  242 602   0 239 349 787 13 126
  243 157  16 240 350 786  0  0
  244 602   0 241 349 787 15 127
  245 157   3 242 350 786  0  0
  246 602   0 243 349 787  2 128
  247 157   7 244 350 786  0  0
  248 602   0 245 349 787  6 129
  249 157  12 246 350 786  0  0
  250 602   0 247 349 787 11 130
  251 157   6 248 350 786  0  0
  252 602   0 249 349 787  5 131
  253 157  15 250 350 786  0  0
  254 602   0 251 349 787 14 132
  255 157  10 252 350 786  0  0
  256 602   0 253 349 787  9 133
  257 157   9 254 350 786  0  0
  258 602   0 255 349 787  8 134
  259 157  14 256 350 786  0  0
  260 602   0 257 349 787 13 135
  261 157  13 258 350 786  0  0
  262 602   0 259 349 787 12 136
  263 157  11 260 350 786  0  0
  264 602   0 261 349 787 10 137
  265 157   5 262 350 786  0  0
  266 602   0 263 349 787  4 138
  267 157  12 264 350 786  0  0
  268 602   0 265 349 787 11 139
  269 157  11 266 350 786  0  0
  270 602   0 267 349 787 10 140
  271 157  10 268 350 786  0  0
  272 602   0 269 349 787  9 141
  273 157   1 270 350 786  0  0
  274 602   0 271 349 787  1 142
[RF]
1      194.444 741 742 743 1370 0 0
2      563.681 744 745 746 100 0 0
3      194.444 741 742 743 1370 0 0.872665
4      194.444 741 742 743 1370 0 2.61799
5      194.444 741 742 743 1370 0 5.23599
6      194.444 741 742 743 1370 0 2.44346
7      194.444 741 742 743 1370 0 0.523599
8      194.444 741 742 743 1370 0 5.75959
9      194.444 741 742 743 1370 0 5.58505
10      194.444 741 742 743 1370 0 1.5708
11      194.444 741 742 743 1370 0 4.01426
12      194.444 741 742 743 1370 0 1.0472
13      194.444 741 742 743 1370 0 3.66519
14      194.444 741 742 743 1370 0 4.18879
15      194.444 741 742 743 1370 0 4.71239
16      194.444 741 742 743 1370 0 2.0944
17      194.444 741 742 743 1370 0 3.14159

# Format of arbitrary gradients:
#   time_shape_id of 0 means default timing (stepping with grad_raster starting at 1/2 of grad_raster)
# id amplitude amp_shape_id time_shape_id delay
# ..      Hz/m       ..         ..          us
[GRADIENTS]
1       957039 1 0 0
2  1.21678e+06 2 3 0
3       943976 4 0 0
4  1.21734e+06 5 6 0
5       930912 7 0 0
6   1.2179e+06 8 9 0
7       917849 10 0 0
8  1.21848e+06 11 12 0
9       904785 13 0 0
10  1.19013e+06 14 15 0
11       891722 16 0 0
12  1.19042e+06 17 18 0
13       878659 19 0 0
14  1.19071e+06 20 21 0
15       865595 22 0 0
16  1.19101e+06 23 24 0
17       852532 25 0 0
18  1.16235e+06 26 27 0
19       839469 28 0 0
20  1.16234e+06 29 30 0
21       826405 31 0 0
22  1.16234e+06 32 33 0
23       813342 34 0 0
24  1.16233e+06 35 36 0
25       800278 37 0 0
26  1.13336e+06 38 39 0
27       787215 40 0 0
28  1.13304e+06 41 42 0
29       774152 43 0 0
30  1.13271e+06 44 45 0
31       761088 46 0 0
32  1.13237e+06 47 48 0
33       748025 49 0 0
34  1.10308e+06 50 51 0
35       734962 52 0 0
36  1.10241e+06 53 54 0
37       721898 55 0 0
38  1.10172e+06 56 57 0
39       708835 58 0 0
40  1.10102e+06 59 60 0
41       695771 61 0 0
42  1.07143e+06 62 63 0
43       682708 64 0 0
44  1.07038e+06 65 66 0
45       669645 67 0 0
46   1.0693e+06 68 69 0
47       656581 70 0 0
48   1.0682e+06 71 72 0
49       643518 73 0 0
50   1.0383e+06 74 75 0
51       630455 76 0 0
52  1.03683e+06 77 78 0
53       617391 79 0 0
54  1.03534e+06 80 81 0
55       604328 82 0 0
56   1.0338e+06 83 84 0
57       591264 85 0 0
58  1.01569e+06 86 87 0
59       578201 88 0 0
60  1.01389e+06 89 90 0
61       565138 91 0 0
62  1.01205e+06 92 93 0
63       552074 94 0 0
64       981378 95 96 0
65       539011 97 0 0
66       979138 98 99 0
67       525948 100 0 0
68       976842 101 102 0
69       512884 103 0 0
70       974489 104 105 0
71       499821 106 0 0
72       955458 107 108 0
73       486757 109 0 0
74       952800 110 111 0
75       473694 112 0 0
76       950073 113 114 0
77       460631 115 0 0
78       918618 116 117 0
79       447567 118 0 0
80       927493 119 120 0
81       434504 121 0 0
82       924355 122 123 0
83       421440 124 0 0
84       892411 125 126 0
85       408377 127 0 0
86       888806 128 129 0
87       395314 130 0 0
88       897228 131 132 0
89       382250 133 0 0
90       864787 134 135 0
91       369187 136 0 0
92       860705 137 138 0
93       356124 139 0 0
94       868573 140 141 0
95       343060 142 0 0
96       835629 143 144 0
97       340608 145 0 0
98       831021 146 147 0
99       340608 148 0 0
100       838257 149 150 0
101       340608 151 0 0
102       804804 152 153 0
103       340608 154 0 0
104       799616 155 156 0
105       340608 157 0 0
106       806130 158 159 0
107       340608 160 0 0
108       772167 161 162 0
109       340608 163 0 0
110       777947 164 165 0
111       340608 166 0 0
112       772027 167 168 0
113       340608 169 0 0
114       748898 170 171 0
115       340608 172 0 0
116       742431 173 174 0
117       340608 175 0 0
118       718940 176 177 0
119       340608 178 0 0
120       711895 179 180 0
121       340608 181 0 0
122       716173 182 183 0
123       340608 184 0 0
124       691527 185 186 0
125       340608 187 0 0
126       683673 188 189 0
127       340608 190 0 0
128       658616 191 192 0
129       340608 193 0 0
130       661279 194 195 0
131       340608 196 0 0
132       652481 197 198 0
133       340608 199 0 0
134       626105 200 201 0
135       340608 202 0 0
136       627731 203 204 0
137       340608 205 0 0
138       600397 206 207 0
139       340608 208 0 0
140       601114 209 210 0
141       340608 211 0 0
142       572748 212 213 0
143       340608 214 0 0
144       572409 215 216 0
145       340608 217 0 0
146       542930 218 219 0
147      -340608 220 0 0
148       541360 221 222 0
149      -340608 223 0 0
150       510679 224 225 0
151      -340608 226 0 0
152       507669 227 228 0
153      -340608 229 0 0
154       475682 230 231 0
155      -340608 232 0 0
156       453340 233 234 0
157      -340608 235 0 0
158       447520 236 237 0
159      -340608 238 0 0
160       422964 239 240 0
161      -340608 241 0 0
162       415236 242 243 0
163      -340608 244 0 0
164       388032 245 246 0
165      -340608 247 0 0
166       359433 248 249 0
167      -340608 250 0 0
168       340608 251 252 0
169      -340608 253 0 0
170       340608 254 255 0
171      -340608 256 0 0
172       340608 257 258 0
173      -340608 259 0 0
174       340608 260 261 0
175      -340608 262 0 0
176       340608 263 264 0
177      -340608 265 0 0
178       340608 266 267 0
179      -340608 268 0 0
180       340608 269 270 0
181      -340608 271 0 0
182       340608 272 273 0
183      -340608 274 0 0
184       340608 275 276 0
185      -340608 277 0 0
186       340608 278 279 0
187      -340608 280 0 0
188       349061 281 282 0
189      -340608 283 0 0
190       340608 284 285 0
191      -340608 286 0 0
192       380492 287 288 0
193      -340608 289 0 0
194       412425 290 291 0
195      -340608 292 0 0
196       471216 293 294 0
197      -340608 295 0 0
198       436369 296 297 0
199      -340608 298 0 0
200       466637 299 300 0
201      -353169 301 0 0
202       470470 302 303 0
203      -366233 304 0 0
204       500921 305 306 0
205      -379296 307 0 0
206       524559 308 309 0
207      -392359 310 0 0
208       528348 311 312 0
209      -405423 313 0 0
210       555754 314 315 0
211      -418486 316 0 0
212       583161 317 318 0
213      -431550 319 0 0
214       583050 320 321 0
215      -444613 322 0 0
216       608743 323 324 0
217      -457676 325 0 0
218       589788 326 327 0
219      -470740 328 0 0
220       613279 329 330 0
221      -483803 331 0 0
222       619082 332 333 0
223      -496866 334 0 0
224       617098 335 336 0
225      -509930 337 0 0
226       674409 338 339 0
227      -522993 340 0 0
228       678298 341 342 0
229      -536057 343 0 0
230       699934 344 345 0
231      -549120 346 0 0
232       703069 347 348 0
233      -562183 349 0 0
234       706047 350 351 0
235      -575247 352 0 0
236       733802 353 354 0
237      -588310 355 0 0
238       735906 356 357 0
239      -601373 358 0 0
240       755482 359 360 0
241      -614437 361 0 0
242       757033 362 363 0
243      -627500 364 0 0
244       791996 365 366 0
245      -640564 367 0 0
246       792682 368 369 0
247      -653627 370 0 0
248       793337 371 372 0
249      -666690 373 0 0
250       793964 374 375 0
251      -679754 376 0 0
252       816306 377 378 0
253      -692817 379 0 0
254       816428 380 381 0
255      -705880 382 0 0
256       816546 383 384 0
257      -718944 385 0 0
258       847227 386 387 0
259      -732007 388 0 0
260       846726 389 390 0
261      -745071 391 0 0
262       846245 392 393 0
263      -758134 394 0 0
264       875724 395 396 0
265      -771197 397 0 0
266       874694 398 399 0
267      -784261 400 0 0
268       914645 401 402 0
269      -797324 403 0 0
270       912866 404 405 0
271      -810387 406 0 0
272       911155 407 408 0
273      -823451 409 0 0
274       939521 410 411 0
275      -836514 412 0 0
276       937349 413 414 0
277      -849578 415 0 0
278       935255 416 417 0
279      -862641 418 0 0
280       962589 419 420 0
281      -875704 421 0 0
282       943238 422 423 0
283      -888768 424 0 0
284       969614 425 426 0
285      -901831 427 0 0
286       967072 428 429 0
287      -914894 430 0 0
288       964616 431 432 0
289      -927958 433 0 0
290   1.0013e+06 434 435 0
291      -941021 436 0 0
292       998260 437 438 0
293      -954085 439 0 0
294  1.02374e+06 440 441 0
295      -967148 442 0 0
296  1.02038e+06 443 444 0
297      -980211 445 0 0
298   1.0283e+06 446 447 0
299      -993275 448 0 0
300  1.02498e+06 449 450 0
301 -1.00634e+06 451 0 0
302  1.06084e+06 452 453 0
303  -1.0194e+06 454 0 0
304  1.05699e+06 455 456 0
305 -1.03246e+06 457 0 0
306  1.05326e+06 458 459 0
307 -1.04553e+06 460 0 0
308   1.0603e+06 461 462 0
309 -1.05859e+06 463 0 0
310  1.05663e+06 464 465 0
311 -1.07166e+06 466 0 0
312  1.09131e+06 467 468 0
313 -1.08472e+06 469 0 0
314  1.08717e+06 470 471 0
315 -1.09778e+06 472 0 0
316   1.1103e+06 473 474 0
317 -1.11085e+06 475 0 0
318  1.08943e+06 476 477 0
319 -1.12391e+06 478 0 0
320  1.11187e+06 479 480 0
321 -1.13697e+06 481 0 0
322  1.11906e+06 482 483 0
323 -1.15004e+06 484 0 0
324  1.14149e+06 485 486 0
325  -1.1631e+06 487 0 0
326  1.12032e+06 488 489 0
327 -1.17616e+06 490 0 0
328  1.14211e+06 491 492 0
329 -1.18923e+06 493 0 0
330  1.14909e+06 494 495 0
331 -1.20229e+06 496 0 0
332  1.17088e+06 497 498 0
333 -1.21535e+06 499 0 0
334  1.14948e+06 500 501 0
335 -1.22842e+06 502 0 0
336  1.17065e+06 503 504 0
337 -1.24148e+06 505 0 0
338  1.17743e+06 506 507 0
339 -1.25454e+06 508 0 0
340  1.19861e+06 509 510 0
341 -1.26761e+06 511 0 0
342  1.17703e+06 512 513 0
343 -1.28067e+06 514 0 0
344  1.20953e+06 515 516 0
345       980392 517 0 0
347       971480 518 0 0
349       962567 519 0 0
351       953654 520 0 0
353       944742 521 0 0
355       935829 522 0 0
357       926916 523 0 0
359       918004 524 0 0
361       909091 525 0 0
363       900178 526 0 0
365       891266 527 0 0
367       882353 528 0 0
369       873440 529 0 0
371       864528 530 0 0
373       855615 531 0 0
375       846702 532 0 0
377       837790 533 0 0
379       828877 534 0 0
381       819964 535 0 0
383       811052 536 0 0
385       802139 537 0 0
387       793226 538 0 0
389       784314 539 0 0
391       775401 540 0 0
393       766488 541 0 0
395       757576 542 0 0
397       748663 543 0 0
399       739750 544 0 0
401       730838 545 0 0
403       721925 546 0 0
405       713012 547 0 0
407       704100 548 0 0
409       695187 549 0 0
411       686275 550 0 0
413       677362 551 0 0
415       668449 552 0 0
417       659537 553 0 0
419       650624 554 0 0
421       641711 555 0 0
423       632799 556 0 0
425       623886 557 0 0
427       614973 558 0 0
429       606061 559 0 0
431       597148 560 0 0
433       588235 561 0 0
435       579323 562 0 0
437       570410 563 0 0
439       561497 564 0 0
441       552585 565 0 0
443       543672 566 0 0
445       534759 567 0 0
447       525847 568 0 0
449       516934 569 0 0
451       508021 570 0 0
453       499109 571 0 0
455       490196 572 0 0
457       481283 573 0 0
459       472371 574 0 0
461       463458 575 0 0
463       454545 576 0 0
465       445633 577 0 0
467       436720 578 0 0
469       427807 579 0 0
471       418895 580 0 0
473       409982 581 0 0
475       401070 582 0 0
477       392157 583 0 0
479       383244 584 0 0
481       374332 585 0 0
483       365419 586 0 0
485       356506 587 0 0
487       347594 588 0 0
489       340608 589 0 0
491       340608 590 0 0
493       340608 591 0 0
495       340608 592 0 0
497       340608 593 0 0
499       340608 594 0 0
501       340608 595 0 0
503       340608 596 0 0
505       340608 597 0 0
507       340608 598 0 0
509       340608 599 0 0
511       340608 600 0 0
513       340608 601 0 0
515       340608 602 0 0
517       340608 603 0 0
519       340608 604 0 0
521       340608 605 0 0
523       340608 606 0 0
525       340608 607 0 0
527       340608 608 0 0
529       340608 609 0 0
531       340608 610 0 0
533       340608 611 0 0
535       340608 612 0 0
537       340608 613 0 0
539       340608 614 0 0
541       340608 615 0 0
543       340608 616 0 0
545       340608 617 0 0
547       340608 618 0 0
549       340608 619 0 0
551       340608 620 0 0
553       340608 621 0 0
555       340608 622 0 0
557       340608 623 0 0
559       340608 624 0 0
561       340608 625 0 0
563       340608 626 0 0
565       340608 627 0 0
567      -340608 628 0 0
569      -340608 629 0 0
571      -340608 630 0 0
573      -340608 631 0 0
575      -340608 632 0 0
577      -340608 633 0 0
579      -340608 634 0 0
581      -340608 635 0 0
583      -340608 636 0 0
585      -340608 637 0 0
587      -340608 638 0 0
589      -340608 639 0 0
591      -340608 640 0 0
593      -340608 641 0 0
595      -340608 642 0 0
597      -340608 643 0 0
599      -340608 644 0 0
601      -340608 645 0 0
603      -340608 646 0 0
605      -340608 647 0 0
607      -340608 648 0 0
609      -340608 649 0 0
611      -340608 650 0 0
613      -340608 651 0 0
615      -340608 652 0 0
617      -340608 653 0 0
619      -340608 654 0 0
621      -340608 655 0 0
623      -340608 656 0 0
625      -340608 657 0 0
627      -340608 658 0 0
629      -340608 659 0 0
631      -340608 660 0 0
633      -340608 661 0 0
635      -340608 662 0 0
637      -340608 663 0 0
639      -340608 664 0 0
641      -340608 665 0 0
643      -347594 666 0 0
645      -356506 667 0 0
647      -365419 668 0 0
649      -374332 669 0 0
651      -383244 670 0 0
653      -392157 671 0 0
655      -401070 672 0 0
657      -409982 673 0 0
659      -418895 674 0 0
661      -427807 675 0 0
663      -436720 676 0 0
665      -445633 677 0 0
667      -454545 678 0 0
669      -463458 679 0 0
671      -472371 680 0 0
673      -481283 681 0 0
675      -490196 682 0 0
677      -499109 683 0 0
679      -508021 684 0 0
681      -516934 685 0 0
683      -525847 686 0 0
685      -534759 687 0 0
687      -543672 688 0 0
689      -552585 689 0 0
691      -561497 690 0 0
693      -570410 691 0 0
695      -579323 692 0 0
697      -588235 693 0 0
699      -597148 694 0 0
701      -606061 695 0 0
703      -614973 696 0 0
705      -623886 697 0 0
707      -632799 698 0 0
709      -641711 699 0 0
711      -650624 700 0 0
713      -659537 701 0 0
715      -668449 702 0 0
717      -677362 703 0 0
719      -686275 704 0 0
721      -695187 705 0 0
723      -704100 706 0 0
725      -713012 707 0 0
727      -721925 708 0 0
729      -730838 709 0 0
731      -739750 710 0 0
733      -748663 711 0 0
735      -757576 712 0 0
737      -766488 713 0 0
739      -775401 714 0 0
741      -784314 715 0 0
743      -793226 716 0 0
745      -802139 717 0 0
747      -811052 718 0 0
749      -819964 719 0 0
751      -828877 720 0 0
753      -837790 721 0 0
755      -846702 722 0 0
757      -855615 723 0 0
759      -864528 724 0 0
761      -873440 725 0 0
763      -882353 726 0 0
765      -891266 727 0 0
767      -900178 728 0 0
769      -909091 729 0 0
771      -918004 730 0 0
773      -926916 731 0 0
775      -935829 732 0 0
777      -944742 733 0 0
779      -953654 734 0 0
781      -962567 735 0 0
783      -971480 736 0 0
786  2.08192e+06 737 738 0
787 -1.00879e+06 739 740 0

# Format of trapezoid gradients:
# id amplitude rise flat fall delay
# ..      Hz/m   us   us   us    us
[TRAP]
346 -1.21951e+06 410    0 410   0
348 -1.20843e+06 410    0 410   0
350 -1.19734e+06 410    0 410   0
352 -1.18625e+06 410    0 410   0
354 -1.17517e+06 410    0 410   0
356 -1.16408e+06 410    0 410   0
358 -1.18182e+06 400    0 400   0
360 -1.17045e+06 400    0 400   0
362 -1.15909e+06 400    0 400   0
364 -1.14773e+06 400    0 400   0
366 -1.13636e+06 400    0 400   0
368 -1.15385e+06 390    0 390   0
370 -1.14219e+06 390    0 390   0
372 -1.13054e+06 390    0 390   0
374 -1.11888e+06 390    0 390   0
376 -1.10723e+06 390    0 390   0
378  -1.1244e+06 380    0 380   0
380 -1.11244e+06 380    0 380   0
382 -1.10048e+06 380    0 380   0
384 -1.08852e+06 380    0 380   0
386 -1.07656e+06 380    0 380   0
388 -1.09337e+06 370    0 370   0
390 -1.08108e+06 370    0 370   0
392  -1.0688e+06 370    0 370   0
394 -1.05651e+06 370    0 370   0
396 -1.04423e+06 370    0 370   0
398 -1.06061e+06 360    0 360   0
400 -1.04798e+06 360    0 360   0
402 -1.03535e+06 360    0 360   0
404 -1.02273e+06 360    0 360   0
406 -1.03896e+06 350    0 350   0
408 -1.02597e+06 350    0 350   0
410 -1.01299e+06 350    0 350   0
412       -1e+06 350    0 350   0
414      -987013 350    0 350   0
416 -1.00267e+06 340    0 340   0
418      -989305 340    0 340   0
420      -975936 340    0 340   0
422      -962567 340    0 340   0
424      -977961 330    0 330   0
426      -964187 330    0 330   0
428      -950413 330    0 330   0
430      -936639 330    0 330   0
432      -951705 320    0 320   0
434      -937500 320    0 320   0
436      -923295 320    0 320   0
438      -909091 320    0 320   0
440      -923754 310    0 310   0
442      -909091 310    0 310   0
444      -894428 310    0 310   0
446      -879765 310    0 310   0
448      -893939 300    0 300   0
450      -878788 300    0 300   0
452      -863636 300    0 300   0
454      -848485 300    0 300   0
456      -862069 290    0 290   0
458      -846395 290    0 290   0
460      -830721 290    0 290   0
462      -815047 290    0 290   0
464      -827922 280    0 280   0
466      -811688 280    0 280   0
468      -795455 280    0 280   0
470      -779221 280    0 280   0
472      -791246 270    0 270   0
474      -774411 270    0 270   0
476      -757576 270    0 270   0
478      -769231 260    0 260   0
480      -751748 260    0 260   0
482      -734266 260    0 260   0
484      -716783 260    0 260   0
486      -727273 250    0 250   0
488      -709091 250    0 250   0
490      -690909 250    0 250   0
492      -700758 240    0 240   0
494      -681818 240    0 240   0
496      -662879 240    0 240   0
498      -671937 230    0 230   0
500      -652174 230    0 230   0
502      -632411 230    0 230   0
504      -640496 220    0 220   0
506      -619835 220    0 220   0
508      -599174 220    0 220   0
510      -606061 210    0 210   0
512      -584416 210    0 210   0
514      -590909 200    0 200   0
516      -568182 200    0 200   0
518      -545455 200    0 200   0
520      -550239 190    0 190   0
522      -526316 190    0 190   0
524      -530303 180    0 180   0
526      -505051 180    0 180   0
528      -479798 180    0 180   0
530      -481283 170    0 170   0
532      -454545 170    0 170   0
534      -454545 160    0 160   0
536      -426136 160    0 160   0
538      -424242 150    0 150   0
540      -393939 150    0 150   0
542      -389610 140    0 140   0
544      -384615 130    0 130   0
546      -349650 130    0 130   0
548      -340909 120    0 120   0
550      -303030 120    0 120   0
552      -289256 110    0 110   0
554      -272727 100    0 100   0
556      -252525  90    0  90   0
558      -227273  80    0  80   0
560      -194805  70    0  70   0
562      -151515  60    0  60   0
564      -113636  40    0  40   0
566 -1.69324e-09  10    0  10   0
568       113636  40    0  40   0
570       151515  60    0  60   0
572       194805  70    0  70   0
574       227273  80    0  80   0
576       252525  90    0  90   0
578       272727 100    0 100   0
580       289256 110    0 110   0
582       303030 120    0 120   0
584       340909 120    0 120   0
586       349650 130    0 130   0
588       384615 130    0 130   0
590       389610 140    0 140   0
592       393939 150    0 150   0
594       424242 150    0 150   0
596       426136 160    0 160   0
598       454545 160    0 160   0
600       454545 170    0 170   0
602       481283 170    0 170   0
604       479798 180    0 180   0
606       505051 180    0 180   0
608       530303 180    0 180   0
610       526316 190    0 190   0
612       550239 190    0 190   0
614       545455 200    0 200   0
616       568182 200    0 200   0
