# Pulseq sequence file
# Created by MATLAB mr toolbox

[VERSION]
major 1
minor 5
revision 1

[DEFINITIONS]
AdcRasterTime 1e-07 
BlockDurationRaster 1e-05 
FOV 0.172 0.22 0.256 
FlipAngle 7 
GradientRasterTime 1e-05 
NParts 5 
Nacs 32 
Name gre_witness_merged_calib_172x220x256_Nxos1024_Ncalib72x1_Nacs32_Ndummy300_Nsettle10_os4_amp8_cycles10_SAG_skyra 
Ncalib1 72 
Ncalib2 1 
Ndummy 300 
NsettlePerPart 10 
Nx 172 
Nx_os 1024 
Ny 220 
Nz 256 
OrientationMapping SAG 
Part0_IsACS 0 
Part0_KyPhysStart0 74 
Part0_KyPhysStop0 145 
Part0_KzPhysStart0 86 
Part0_KzPhysStop0 86 
Part0_Mode nowave 
Part0_NLinLocal 72 
Part0_NParLocal 1 
Part0_Name nowave_kywide_kznarrow 
Part0_SetID 0 
Part1_IsACS 0 
Part1_KyPhysStart0 74 
Part1_KyPhysStop0 145 
Part1_KzPhysStart0 86 
Part1_KzPhysStop0 86 
Part1_Mode sin 
Part1_NLinLocal 72 
Part1_NParLocal 1 
Part1_Name sin_kywide_kznarrow 
Part1_SetID 1 
Part2_IsACS 0 
Part2_KyPhysStart0 110 
Part2_KyPhysStop0 110 
Part2_KzPhysStart0 50 
Part2_KzPhysStop0 121 
Part2_Mode nowave 
Part2_NLinLocal 1 
Part2_NParLocal 72 
Part2_Name nowave_kzwide_kynarrow 
Part2_SetID 2 
Part3_IsACS 0 
Part3_KyPhysStart0 110 
Part3_KyPhysStop0 110 
Part3_KzPhysStart0 50 
Part3_KzPhysStop0 121 
Part3_Mode cos 
Part3_NLinLocal 1 
Part3_NParLocal 72 
Part3_Name cos_kzwide_kynarrow 
Part3_SetID 3 
Part4_IsACS 1 
Part4_KyPhysStart0 94 
Part4_KyPhysStop0 125 
Part4_KzPhysStart0 70 
Part4_KzPhysStop0 101 
Part4_Mode nowave 
Part4_NLinLocal 32 
Part4_NParLocal 32 
Part4_Name acs_nowave_center 
Part4_SetID 4 
RadiofrequencyRasterTime 1e-06 
ReadoutOversamplingFactor 4 
ReceiverGainHigh 1 
SliceThickness 0.001 
TE 0.0036325 
TR 0.00773 
TotalDuration 12.84873 
ro_os 4 

# Format of blocks:
# NUM DUR RF  GX  GY  GZ  ADC  EXT
[BLOCKS]
   1 167   1   0   0   0  0  0
   2 606   0 361 1146 1561  0  0
   3 167   2 362 1147 1560  0  0
   4 606   0 365 1146 1561  0  0
   5 167   3 366 1147 1560  0  0
   6 606   0 369 1146 1561  0  0
   7 167   4 370 1147 1560  0  0
   8 606   0 373 1146 1561  0  0
   9 167   5 374 1147 1560  0  0
  10 606   0 377 1146 1561  0  0
  11 167   6 378 1147 1560  0  0
  12 606   0 381 1146 1561  0  0
  13 167   7 382 1147 1560  0  0
  14 606   0 385 1146 1561  0  0
  15 167   8 386 1147 1560  0  0
  16 606   0 389 1146 1561  0  0
  17 167   1 390 1147 1560  0  0
  18 606   0 393 1146 1561  0  0
  19 167   9 394 1147 1560  0  0
  20 606   0 397 1146 1561  0  0
  21 167  10 398 1147 1560  0  0
  22 606   0 401 1146 1561  0  0
  23 167  11 402 1147 1560  0  0
  24 606   0 405 1146 1561  0  0
  25 167   4 406 1147 1560  0  0
  26 606   0 281 1150 1561  0  0
  27 167  10 282 1151 1560  0  0
  28 606   0 285 1150 1561  0  0
  29 167  12 286 1151 1560  0  0
  30 606   0 289 1150 1561  0  0
  31 167  13 290 1151 1560  0  0
  32 606   0 293 1150 1561  0  0
  33 167   8 294 1151 1560  0  0
  34 606   0 297 1150 1561  0  0
  35 167   9 298 1151 1560  0  0
  36 606   0 301 1150 1561  0  0
  37 167  14 302 1151 1560  0  0
  38 606   0 305 1150 1561  0  0
  39 167   5 306 1151 1560  0  0
  40 606   0 309 1150 1561  0  0
  41 167  11 310 1151 1560  0  0
  42 606   0 313 1150 1561  0  0
  43 167   6 314 1151 1560  0  0
  44 606   0 317 1150 1561  0  0
  45 167   2 318 1151 1560  0  0
  46 606   0 321 1150 1561  0  0
  47 167  15 322 1151 1560  0  0
  48 606   0 325 1150 1561  0  0
  49 167  13 326 1151 1560  0  0
  50 606   0 329 1150 1561  0  0
  51 167   2 330 1151 1560  0  0
  52 606   0 333 1150 1561  0  0
  53 167  14 334 1151 1560  0  0
  54 606   0 337 1150 1561  0  0
  55 167  16 338 1151 1560  0  0
  56 606   0 341 1150 1561  0  0
  57 167   5 342 1151 1560  0  0
  58 606   0 345 1150 1561  0  0
  59 167   3 346 1151 1560  0  0
  60 606   0 349 1150 1561  0  0
  61 167  12 350 1151 1560  0  0
  62 606   0 353 1150 1561  0  0
  63 167   8 354 1151 1560  0  0
  64 606   0 357 1150 1561  0  0
  65 167  15 358 1151 1560  0  0
  66 606   0 361 1150 1561  0  0
  67 167   7 362 1151 1560  0  0
  68 606   0 365 1150 1561  0  0
  69 167  10 366 1151 1560  0  0
  70 606   0 369 1150 1561  0  0
  71 167  16 370 1151 1560  0  0
  72 606   0 373 1150 1561  0  0
  73 167  16 374 1151 1560  0  0
  74 606   0 377 1150 1561  0  0
  75 167  10 378 1151 1560  0  0
  76 606   0 381 1150 1561  0  0
  77 167   7 382 1151 1560  0  0
  78 606   0 385 1150 1561  0  0
  79 167  15 386 1151 1560  0  0
  80 606   0 389 1150 1561  0  0
  81 167   8 390 1151 1560  0  0
  82 606   0 393 1150 1561  0  0
  83 167  12 394 1151 1560  0  0
  84 606   0 397 1150 1561  0  0
  85 167   3 398 1151 1560  0  0
  86 606   0 401 1150 1561  0  0
  87 167   5 402 1151 1560  0  0
  88 606   0 405 1150 1561  0  0
  89 167  16 406 1151 1560  0  0
  90 606   0 281 1154 1561  0  0
  91 167  14 282 1155 1560  0  0
  92 606   0 285 1154 1561  0  0
  93 167   2 286 1155 1560  0  0
  94 606   0 289 1154 1561  0  0
  95 167  13 290 1155 1560  0  0
  96 606   0 293 1154 1561  0  0
  97 167  15 294 1155 1560  0  0
  98 606   0 297 1154 1561  0  0
  99 167   2 298 1155 1560  0  0
 100 606   0 301 1154 1561  0  0
 101 167   6 302 1155 1560  0  0
 102 606   0 305 1154 1561  0  0
 103 167  11 306 1155 1560  0  0
 104 606   0 309 1154 1561  0  0
 105 167   5 310 1155 1560  0  0
 106 606   0 313 1154 1561  0  0
 107 167  14 314 1155 1560  0  0
 108 606   0 317 1154 1561  0  0
 109 167   9 318 1155 1560  0  0
 110 606   0 321 1154 1561  0  0
 111 167   8 322 1155 1560  0  0
 112 606   0 325 1154 1561  0  0
 113 167  13 326 1155 1560  0  0
 114 606   0 329 1154 1561  0  0
 115 167  12 330 1155 1560  0  0
 116 606   0 333 1154 1561  0  0
 117 167  10 334 1155 1560  0  0
 118 606   0 337 1154 1561  0  0
 119 167   4 338 1155 1560  0  0
 120 606   0 341 1154 1561  0  0
 121 167  11 342 1155 1560  0  0
 122 606   0 345 1154 1561  0  0
 123 167  10 346 1155 1560  0  0
 124 606   0 349 1154 1561  0  0
 125 167   9 350 1155 1560  0  0
 126 606   0 353 1154 1561  0  0
 127 167   1 354 1155 1560  0  0
 128 606   0 357 1154 1561  0  0
 129 167   8 358 1155 1560  0  0
 130 606   0 361 1154 1561  0  0
 131 167   7 362 1155 1560  0  0
 132 606   0 365 1154 1561  0  0
 133 167   6 366 1155 1560  0  0
 134 606   0 369 1154 1561  0  0
 135 167   5 370 1155 1560  0  0
 136 606   0 373 1154 1561  0  0
 137 167   4 374 1155 1560  0  0
 138 606   0 377 1154 1561  0  0
 139 167   3 378 1155 1560  0  0
 140 606   0 381 1154 1561  0  0
 141 167   2 382 1155 1560  0  0
 142 606   0 385 1154 1561  0  0
 143 167   1 386 1155 1560  0  0
 144 606   0 389 1154 1561  0  0
 145 167   1 390 1155 1560  0  0
 146 606   0 393 1154 1561  0  0
 147 167   2 394 1155 1560  0  0
 148 606   0 397 1154 1561  0  0
 149 167   3 398 1155 1560  0  0
 150 606   0 401 1154 1561  0  0
 151 167   4 402 1155 1560  0  0
 152 606   0 405 1154 1561  0  0
 153 167   5 406 1155 1560  0  0
 154 606   0 281 1158 1561  0  0
 155 167   6 282 1159 1560  0  0
 156 606   0 285 1158 1561  0  0
 157 167   7 286 1159 1560  0  0
 158 606   0 289 1158 1561  0  0
 159 167   8 290 1159 1560  0  0
 160 606   0 293 1158 1561  0  0
 161 167   1 294 1159 1560  0  0
 162 606   0 297 1158 1561  0  0
 163 167   9 298 1159 1560  0  0
 164 606   0 301 1158 1561  0  0
 165 167  10 302 1159 1560  0  0
 166 606   0 305 1158 1561  0  0
 167 167  11 306 1159 1560  0  0
 168 606   0 309 1158 1561  0  0
 169 167   4 310 1159 1560  0  0
 170 606   0 313 1158 1561  0  0
 171 167  10 314 1159 1560  0  0
 172 606   0 317 1158 1561  0  0
 173 167  12 318 1159 1560  0  0
 174 606   0 321 1158 1561  0  0
 175 167  13 322 1159 1560  0  0
 176 606   0 325 1158 1561  0  0
 177 167   8 326 1159 1560  0  0
 178 606   0 329 1158 1561  0  0
 179 167   9 330 1159 1560  0  0
 180 606   0 333 1158 1561  0  0
 181 167  14 334 1159 1560  0  0
 182 606   0 337 1158 1561  0  0
 183 167   5 338 1159 1560  0  0
 184 606   0 341 1158 1561  0  0
 185 167  11 342 1159 1560  0  0
 186 606   0 345 1158 1561  0  0
 187 167   6 346 1159 1560  0  0
 188 606   0 349 1158 1561  0  0
 189 167   2 350 1159 1560  0  0
 190 606   0 353 1158 1561  0  0
 191 167  15 354 1159 1560  0  0
 192 606   0 357 1158 1561  0  0
 193 167  13 358 1159 1560  0  0
 194 606   0 361 1158 1561  0  0
 195 167   2 362 1159 1560  0  0
 196 606   0 365 1158 1561  0  0
 197 167  14 366 1159 1560  0  0
 198 606   0 369 1158 1561  0  0
 199 167  16 370 1159 1560  0  0
 200 606   0 373 1158 1561  0  0
 201 167   5 374 1159 1560  0  0
 202 606   0 377 1158 1561  0  0
 203 167   3 378 1159 1560  0  0
 204 606   0 381 1158 1561  0  0
 205 167  12 382 1159 1560  0  0
 206 606   0 385 1158 1561  0  0
 207 167   8 386 1159 1560  0  0
 208 606   0 389 1158 1561  0  0
 209 167  15 390 1159 1560  0  0
 210 606   0 393 1158 1561  0  0
 211 167   7 394 1159 1560  0  0
 212 606   0 397 1158 1561  0  0
 213 167  10 398 1159 1560  0  0
 214 606   0 401 1158 1561  0  0
 215 167  16 402 1159 1560  0  0
 216 606   0 405 1158 1561  0  0
 217 167  16 406 1159 1560  0  0
 218 606   0 281 1162 1561  0  0
 219 167  10 282 1163 1560  0  0
 220 606   0 285 1162 1561  0  0
 221 167   7 286 1163 1560  0  0
 222 606   0 289 1162 1561  0  0
 223 167  15 290 1163 1560  0  0
 224 606   0 293 1162 1561  0  0
 225 167   8 294 1163 1560  0  0
 226 606   0 297 1162 1561  0  0
 227 167  12 298 1163 1560  0  0
 228 606   0 301 1162 1561  0  0
 229 167   3 302 1163 1560  0  0
 230 606   0 305 1162 1561  0  0
 231 167   5 306 1163 1560  0  0
 232 606   0 309 1162 1561  0  0
 233 167  16 310 1163 1560  0  0
 234 606   0 313 1162 1561  0  0
 235 167  14 314 1163 1560  0  0
 236 606   0 317 1162 1561  0  0
 237 167   2 318 1163 1560  0  0
 238 606   0 321 1162 1561  0  0
 239 167  13 322 1163 1560  0  0
 240 606   0 325 1162 1561  0  0
 241 167  15 326 1163 1560  0  0
 242 606   0 329 1162 1561  0  0
 243 167   2 330 1163 1560  0  0
 244 606   0 333 1162 1561  0  0
 245 167   6 334 1163 1560  0  0
 246 606   0 337 1162 1561  0  0
 247 167  11 338 1163 1560  0  0
 248 606   0 341 1162 1561  0  0
 249 167   5 342 1163 1560  0  0
[RF]
1      194.444 741 742 743 50 1470 0 0 0 0 e
2      194.444 741 742 743 50 1470 0 0 0 0.872665 e
3      194.444 741 742 743 50 1470 0 0 0 2.61799 e
4      194.444 741 742 743 50 1470 0 0 0 5.23599 e
5      194.444 741 742 743 50 1470 0 0 0 2.44346 e
6      194.444 741 742 743 50 1470 0 0 0 0.523599 e
7      194.444 741 742 743 50 1470 0 0 0 5.75959 e
8      194.444 741 742 743 50 1470 0 0 0 5.58505 e
9      194.444 741 742 743 50 1470 0 0 0 1.5708 e
10      194.444 741 742 743 50 1470 0 0 0 4.01426 e
11      194.444 741 742 743 50 1470 0 0 0 1.0472 e
12      194.444 741 742 743 50 1470 0 0 0 3.66519 e
13      194.444 741 742 743 50 1470 0 0 0 4.18879 e
14      194.444 741 742 743 50 1470 0 0 0 4.71239 e
15      194.444 741 742 743 50 1470 0 0 0 2.0944 e
16      194.444 741 742 743 50 1470 0 0 0 3.14159 e

# Format of arbitrary gradients:
#   time_shape_id of 0 means default timing (stepping with grad_raster starting at 1/2 of grad_raster)
# id amplitude first last amp_shape_id time_shape_id delay
# ..      Hz/m  Hz/m Hz/m        ..         ..          us
[GRADIENTS]
3       908560            0       340608 1 0 0
4  1.17094e+06       340608            0 2 3 0
7       896059            0       340608 4 0 0
8  1.17102e+06       340608            0 5 6 0
11       883557            0       340608 7 0 0
12  1.14505e+06       340608            0 8 9 0
15       871055            0       340608 10 0 0
16  1.14488e+06       340608            0 11 12 0
19       858554            0       340608 13 0 0
20   1.1447e+06       340608            0 14 15 0
23       846052            0       340608 16 0 0
24  1.14452e+06       340608            0 17 18 0
27       833550            0       340608 19 0 0
28  1.11831e+06       340608            0 20 21 0
31       821049            0       340608 22 0 0
32  1.11786e+06       340608            0 23 24 0
35       808547            0       340608 25 0 0
36  1.11741e+06       340608            0 26 27 0
39       796045            0       340608 28 0 0
40  1.11694e+06       340608            0 29 30 0
43       783544            0       340608 31 0 0
44  1.09048e+06       340608            0 32 33 0
47       771042            0       340608 34 0 0
48  1.08974e+06       340608            0 35 36 0
51       758540            0       340608 37 0 0
52  1.08898e+06       340608            0 38 39 0
55       746039            0       340608 40 0 0
56  1.08822e+06       340608            0 41 42 0
59       733537            0       340608 43 0 0
60  1.08743e+06       340608            0 44 45 0
63       721035            0       340608 46 0 0
64  1.06044e+06       340608            0 47 48 0
67       708534            0       340608 49 0 0
68  1.05937e+06       340608            0 50 51 0
71       696032            0       340608 52 0 0
72  1.05827e+06       340608            0 53 54 0
75       683530            0       340608 55 0 0
76  1.05714e+06       340608            0 56 57 0
79       671029            0       340608 58 0 0
80   1.0299e+06       340608            0 59 60 0
83       658527            0       340608 61 0 0
84  1.03965e+06       340608            0 62 63 0
87       646026            0       340608 64 0 0
88  1.01231e+06       340608            0 65 66 0
91       633524            0       340608 67 0 0
92  1.01067e+06       340608            0 68 69 0
95       621022            0       340608 70 0 0
96    1.009e+06       340608            0 71 72 0
99       608521            0       340608 73 0 0
100  1.00729e+06       340608            0 74 75 0
103       596019            0       340608 76 0 0
104  1.00554e+06       340608            0 77 78 0
107       583517            0       340608 79 0 0
108       977666       340608            0 80 81 0
111       571016            0       340608 82 0 0
112       986672       340608            0 83 84 0
115       558514            0       340608 85 0 0
116       958694       340608            0 86 87 0
119       546012            0       340608 88 0 0
120       956375       340608            0 89 90 0
123       533511            0       340608 91 0 0
124       954002       340608            0 92 93 0
127       521009            0       340608 94 0 0
128       951575       340608            0 95 96 0
131       508507            0       340608 97 0 0
132       949090       340608            0 98 99 0
135       496006            0       340608 100 0 0
136       931403       340608            0 101 102 0
139       483504            0       340608 103 0 0
140       928648       340608            0 104 105 0
143       471002            0       340608 106 0 0
144       925827       340608            0 107 108 0
147       458501            0       340608 109 0 0
148       896908       340608            0 110 111 0
151       445999            0       340608 112 0 0
152       904603       340608            0 113 114 0
155       433498            0       340608 115 0 0
156       901416       340608            0 116 117 0
159       420996            0       340608 118 0 0
160       872089       340608            0 119 120 0
163       408494            0       340608 121 0 0
164       879356       340608            0 122 123 0
167       395993            0       340608 124 0 0
168       875768       340608            0 125 126 0
171       383491            0       340608 127 0 0
172       846028       340608            0 128 129 0
175       370989            0       340608 130 0 0
176       852814       340608            0 131 132 0
179       358488            0       340608 133 0 0
180       848788       340608            0 134 135 0
183       345986            0       340608 136 0 0
184       818632       340608            0 137 138 0
187       340608            0       340608 139 0 0
188       824875       340608            0 140 141 0
191       340608            0       340608 142 0 0
192       820370       340608            0 143 144 0
195       340608            0       340608 145 0 0
196       800324       340608            0 146 147 0
199       340608            0       340608 148 0 0
200       795426       340608            0 149 150 0
203       340608            0       340608 151 0 0
204       790394       340608            0 152 153 0
207       340608            0       340608 154 0 0
208       769799       340608            0 155 156 0
211       340608            0       340608 157 0 0
212       764341       340608            0 158 159 0
215       340608            0       340608 160 0 0
216       743460       340608            0 161 162 0
219       340608            0       340608 163 0 0
220       748091       340608            0 164 165 0
223       340608            0       340608 166 0 0
224       742081       340608            0 167 168 0
227       340608            0       340608 169 0 0
228       720292       340608            0 170 171 0
231       340608            0       340608 172 0 0
232       713785       340608            0 173 174 0
235       340608            0       340608 175 0 0
236       691676       340608            0 176 177 0
239       340608            0       340608 178 0 0
240       695018       340608            0 179 180 0
243       340608            0       340608 181 0 0
244       687822       340608            0 182 183 0
247       340608            0       340608 184 0 0
248       664692       340608            0 185 186 0
251       340608            0       340608 187 0 0
252       641563       340608            0 188 189 0
255       340608            0       340608 190 0 0
256       633419       340608            0 191 192 0
259       340608            0       340608 193 0 0
260       635097       340608            0 194 195 0
263       340608            0       340608 196 0 0
264       610849       340608            0 197 198 0
267       340608            0       340608 199 0 0
268       611830       340608            0 200 201 0
271       340608            0       340608 202 0 0
272       586774       340608            0 203 204 0
275       340608            0       340608 205 0 0
276       586959       340608            0 206 207 0
279       340608            0       340608 208 0 0
280       561039       340608            0 209 210 0
283       340608            0       340608 211 0 0
284       560312       340608            0 212 213 0
287       340608            0       340608 214 0 0
288       533465       340608            0 215 216 0
291       340608            0       340608 217 0 0
292       531690       340608            0 218 219 0
295      -340608            0       340608 220 0 0
296       503849       340608            0 221 222 0
299      -340608            0       340608 223 0 0
300       500867       340608            0 224 225 0
303      -340608            0       340608 226 0 0
304       481209       340608            0 227 228 0
307      -340608            0       340608 229 0 0
308       477120       340608            0 230 231 0
311      -340608            0       340608 232 0 0
312       455739       340608            0 233 234 0
315      -340608            0       340608 235 0 0
316       424418       340608            0 236 237 0
319      -340608            0       340608 238 0 0
320       401461       340608            0 239 240 0
323      -340608            0       340608 241 0 0
324       402407       340608            0 242 243 0
327      -340608            0       340608 244 0 0
328       368239       340608            0 245 246 0
331      -340608            0       340608 247 0 0
332       366822       340608            0 248 249 0
335      -340608            0       340608 250 0 0
336       340608       340608            0 251 252 0
339      -340608            0       340608 253 0 0
340       340608       340608            0 254 255 0
343      -340608            0       340608 256 0 0
344       340608       340608            0 257 258 0
347      -340608            0       340608 259 0 0
348       340608       340608            0 260 261 0
351      -340608            0       340608 262 0 0
352       340608       340608            0 263 264 0
355      -340608            0       340608 265 0 0
356       340608       340608            0 266 267 0
359      -340608            0       340608 268 0 0
360       340608       340608            0 269 270 0
363      -340608            0       340608 271 0 0
364       340608       340608            0 272 273 0
367      -340608            0       340608 274 0 0
368       340608       340608            0 275 276 0
371      -340608            0       340608 277 0 0
372       340608       340608            0 278 279 0
375      -340608            0       340608 280 0 0
376       348564       340608            0 281 282 0
379      -340608            0       340608 283 0 0
380       393799       340608            0 284 285 0
383      -340608            0       340608 286 0 0
384       344437       340608            0 287 288 0
387      -340608            0       340608 289 0 0
388       396943       340608            0 290 291 0
391      -340608            0       340608 292 0 0
392       449797       340608            0 293 294 0
395      -340608            0       340608 295 0 0
396       418187       340608            0 296 297 0
399      -340608            0       340608 298 0 0
400       447971       340608            0 299 300 0
403      -345307            0       340608 301 0 0
404       475465       340608            0 302 303 0
407      -357809            0       340608 304 0 0
408       500921       340608            0 305 306 0
411      -370310            0       340608 307 0 0
412       524559       340608            0 308 309 0
415      -382812            0       340608 310 0 0
416       528348       340608            0 311 312 0
419      -395314            0       340608 313 0 0
420       555754       340608            0 314 315 0
423      -407815            0       340608 316 0 0
424       557357       340608            0 317 318 0
427      -420317            0       340608 319 0 0
428       583050       340608            0 320 321 0
431      -432818            0       340608 322 0 0
432       582953       340608            0 323 324 0
435      -445320            0       340608 325 0 0
436       607135       340608            0 326 327 0
439      -457822            0       340608 328 0 0
440       605705       340608            0 329 330 0
443      -470323            0       340608 331 0 0
444       628543       340608            0 332 333 0
447      -482825            0       340608 334 0 0
448       633777       340608            0 335 336 0
451      -495327            0       340608 337 0 0
452       631090       340608            0 338 339 0
455      -507828            0       340608 340 0 0
456       635868       340608            0 341 342 0
459      -520330            0       340608 343 0 0
460       633274       340608            0 344 345 0
463      -532832            0       340608 346 0 0
464       685388       340608            0 347 348 0
467      -545333            0       340608 349 0 0
468       688645       340608            0 350 351 0
471      -557835            0       340608 352 0 0
472       708221       340608            0 353 354 0
475      -570337            0       340608 355 0 0
476       710871       340608            0 356 357 0
479      -582838            0       340608 358 0 0
480       713401       340608            0 359 360 0
483      -595340            0       340608 361 0 0
484       738525       340608            0 362 363 0
487      -607842            0       340608 364 0 0
488       740344       340608            0 365 366 0
491      -620343            0       340608 367 0 0
492       742085       340608            0 368 369 0
495      -632845            0       340608 370 0 0
496       759578       340608            0 371 372 0
499      -645347            0       340608 373 0 0
500       791566       340608            0 374 375 0
503      -657848            0       340608 376 0 0
504       792203       340608            0 377 378 0
507      -670350            0       340608 379 0 0
508       792815       340608            0 380 381 0
511      -682851            0       340608 382 0 0
512       793403       340608            0 383 384 0
515      -695353            0       340608 385 0 0
516       814003       340608            0 386 387 0
519      -707855            0       340608 388 0 0
520       814160       340608            0 389 390 0
523      -720356            0       340608 391 0 0
524       814311       340608            0 392 393 0
527      -732858            0       340608 394 0 0
528       842677       340608            0 395 396 0
531      -745360            0       340608 397 0 0
532       842298       340608            0 398 399 0
535      -757861            0       340608 400 0 0
536       841932       340608            0 401 402 0
539      -770363            0       340608 403 0 0
540       869267       340608            0 404 405 0
543      -782865            0       340608 406 0 0
544       868426       340608            0 407 408 0
547      -795366            0       340608 409 0 0
548       867615       340608            0 410 411 0
551      -807868            0       340608 412 0 0
552       893990       340608            0 413 414 0
555      -820370            0       340608 415 0 0
556       902439       340608            0 416 417 0
559      -832871            0       340608 418 0 0
560       901055       340608            0 419 420 0
563      -845373            0       340608 421 0 0
564       926976       340608            0 422 423 0
567      -857875            0       340608 424 0 0
568       925199       340608            0 425 426 0
571      -870376            0       340608 427 0 0
572       950681       340608            0 428 429 0
575      -882878            0       340608 430 0 0
576       948539       340608            0 431 432 0
579      -895379            0       340608 433 0 0
580       946468       340608            0 434 435 0
583      -907881            0       340608 436 0 0
584       955451       340608            0 437 438 0
587      -920383            0       340608 439 0 0
588       953335       340608            0 440 441 0
591      -932884            0       340608 442 0 0
592       977199       340608            0 443 444 0
595      -945386            0       340608 445 0 0
596       974776       340608            0 446 447 0
599      -957888            0       340608 448 0 0
600       982301       340608            0 449 450 0
603      -970389            0       340608 451 0 0
604  1.00579e+06       340608            0 452 453 0
607      -982891            0       340608 454 0 0
608  1.00297e+06       340608            0 455 456 0
611      -995393            0       340608 457 0 0
612   1.0261e+06       340608            0 458 459 0
615 -1.00789e+06            0       340608 460 0 0
616  1.00774e+06       340608            0 461 462 0
619  -1.0204e+06            0       340608 463 0 0
620  1.03018e+06       340608            0 464 465 0
623  -1.0329e+06            0       340608 466 0 0
624  1.02712e+06       340608            0 467 468 0
627  -1.0454e+06            0       340608 469 0 0
628   1.0342e+06       340608            0 470 471 0
631  -1.0579e+06            0       340608 472 0 0
632  1.05631e+06       340608            0 473 474 0
635  -1.0704e+06            0       340608 475 0 0
636  1.05292e+06       340608            0 476 477 0
639  -1.0829e+06            0       340608 478 0 0
640  1.05935e+06       340608            0 479 480 0
643 -1.09541e+06            0       340608 481 0 0
644  1.05601e+06       340608            0 482 483 0
647 -1.10791e+06            0       340608 484 0 0
648  1.08771e+06       340608            0 485 486 0
651 -1.12041e+06            0       340608 487 0 0
652  1.08397e+06       340608            0 488 489 0
655 -1.13291e+06            0       340608 490 0 0
656  1.10514e+06       340608            0 491 492 0
659 -1.14541e+06            0       340608 493 0 0
660  1.08613e+06       340608            0 494 495 0
663 -1.15791e+06            0       340608 496 0 0
664  1.10672e+06       340608            0 497 498 0
667 -1.17042e+06            0       340608 499 0 0
668  1.11332e+06       340608            0 500 501 0
671 -1.18292e+06            0       340608 502 0 0
672  1.13391e+06       340608            0 503 504 0
675 -1.19542e+06            0       340608 505 0 0
676  1.11464e+06       340608            0 506 507 0
679 -1.20792e+06            0       340608 508 0 0
680  1.13468e+06       340608            0 509 510 0
683 -1.22042e+06            0       340608 511 0 0
684   1.1411e+06       340608            0 512 513 0
687 -1.23292e+06            0       340608 514 0 0
688  1.16115e+06       340608            0 515 516 0
689       961538            0            0 517 0 0
692       952797            0            0 518 0 0
696       944056            0            0 519 0 0
700       935315            0            0 520 0 0
704       926573            0            0 521 0 0
708       917832            0            0 522 0 0
712       909091            0            0 523 0 0
716       900350            0            0 524 0 0
720       891608            0            0 525 0 0
724       882867            0            0 526 0 0
728       874126            0            0 527 0 0
732       865385            0            0 528 0 0
736       856643            0            0 529 0 0
740       847902            0            0 530 0 0
744       839161            0            0 531 0 0
748       830420            0            0 532 0 0
752       821678            0            0 533 0 0
756       812937            0            0 534 0 0
760       804196            0            0 535 0 0
764       795455            0            0 536 0 0
768       786713            0            0 537 0 0
772       777972            0            0 538 0 0
776       769231            0            0 539 0 0
