# Pulseq sequence file
# Created by MATLAB mr toolbox

[VERSION]
major 1
minor 5
revision 1

[DEFINITIONS]
ACS_Pairs 0 
AdcRasterTime 1e-07 
BlockDurationRaster 1e-05 
ETL_Blocks_IMG 73 
ETL_CenterSlot 86 
ETL_DummySlots_IMG 0 
ETL_Efficiency_IMG 1 
ETL_FillerPerKy_IMG 0 
ETL_Mode_IMG dummy 
ETL_RealSlots_IMG 12556 
ETL_SegLen_IMG 172 
ETL_SegmentsPerBlock_IMG 1 
ETL_SegmentsPerKy_IMG 1 
ETL_Target 172 
FOV 0.172 0.22 0.256 
FlipAngle 7 
GradientRasterTime 1e-05 
Name mprage_3d_wave_sin_cos_172x220x256_res1x1x1mm_ETL172_dummy_R1_1_R2_3_ACS1_0_ACS2_0_os4_amp8_cycles10_SAG_skyra 
Nx 172 
Ny 220 
Nz 256 
OrientationMapping SAG 
PE1_ACS 0 
PE1_ACSTargetLines 0 
PE1_ImgLines 172 
PE1_R 1 
PE2_ACS 0 
PE2_ACSTargetLines 0 
PE2_ImgLines 73 
PE2_R 3 
PhaseResolution 1 
RadiofrequencyRasterTime 1e-06 
ReadoutOversamplingFactor 4 
ReceiverGainHigh 1 
RequestedResolutionX_mm 1 
RequestedResolutionY_mm 1 
RequestedResolutionZ_mm 1 
ResolutionX_mm 1 
ResolutionY_mm 1 
ResolutionZ_mm 1 
SliceThickness 0.001 
TR 2.5 
TotalDuration 182.5 
kSpaceCenterLine 110 
kSpaceCenterPartition 86 
ro_os 4 

# Format of blocks:
# NUM DUR RF  GX  GY  GZ  ADC  EXT
[BLOCKS]
    1 1044   2   0   0   0  0  0
    2 42849   0   0 785   0  0  0
    3 167   1   0   0   0  0  0
    4 606   0   1 349 787  1  5
    5 167   3   2 350 786  0  0
    6 606   0   3 349 787  2  8
    7 167   4   4 350 786  0  0
    8 606   0   5 349 787  3  9
    9 167   5   6 350 786  0  0
   10 606   0   7 349 787  4 10
   11 167   6   8 350 786  0  0
   12 606   0   9 349 787  5 11
   13 167   7  10 350 786  0  0
   14 606   0  11 349 787  6 12
   15 167   8  12 350 786  0  0
   16 606   0  13 349 787  7 13
   17 167   9  14 350 786  0  0
   18 606   0  15 349 787  8 14
   19 167   1  16 350 786  0  0
   20 606   0  17 349 787  1 15
   21 167  10  18 350 786  0  0
   22 606   0  19 349 787  9 16
   23 167  11  20 350 786  0  0
   24 606   0  21 349 787 10 17
   25 167  12  22 350 786  0  0
   26 606   0  23 349 787 11 18
   27 167   5  24 350 786  0  0
   28 606   0  25 349 787  4 19
   29 167  11  26 350 786  0  0
   30 606   0  27 349 787 10 20
   31 167  13  28 350 786  0  0
   32 606   0  29 349 787 12 21
   33 167  14  30 350 786  0  0
   34 606   0  31 349 787 13 22
   35 167   9  32 350 786  0  0
   36 606   0  33 349 787  8 23
   37 167  10  34 350 786  0  0
   38 606   0  35 349 787  9 24
   39 167  15  36 350 786  0  0
   40 606   0  37 349 787 14 25
   41 167   6  38 350 786  0  0
   42 606   0  39 349 787  5 26
   43 167  12  40 350 786  0  0
   44 606   0  41 349 787 11 27
   45 167   7  42 350 786  0  0
   46 606   0  43 349 787  6 28
   47 167   3  44 350 786  0  0
   48 606   0  45 349 787  2 29
   49 167  16  46 350 786  0  0
   50 606   0  47 349 787 15 30
   51 167  14  48 350 786  0  0
   52 606   0  49 349 787 13 31
   53 167   3  50 350 786  0  0
   54 606   0  51 349 787  2 32
   55 167  15  52 350 786  0  0
   56 606   0  53 349 787 14 33
   57 167  17  54 350 786  0  0
   58 606   0  55 349 787 16 34
   59 167   6  56 350 786  0  0
   60 606   0  57 349 787  5 35
   61 167   4  58 350 786  0  0
   62 606   0  59 349 787  3 36
   63 167  13  60 350 786  0  0
   64 606   0  61 349 787 12 37
   65 167   9  62 350 786  0  0
   66 606   0  63 349 787  8 38
   67 167  16  64 350 786  0  0
   68 606   0  65 349 787 15 39
   69 167   8  66 350 786  0  0
   70 606   0  67 349 787  7 40
   71 167  11  68 350 786  0  0
   72 606   0  69 349 787 10 41
   73 167  17  70 350 786  0  0
   74 606   0  71 349 787 16 42
   75 167  17  72 350 786  0  0
   76 606   0  73 349 787 16 43
   77 167  11  74 350 786  0  0
   78 606   0  75 349 787 10 44
   79 167   8  76 350 786  0  0
   80 606   0  77 349 787  7 45
   81 167  16  78 350 786  0  0
   82 606   0  79 349 787 15 46
   83 167   9  80 350 786  0  0
   84 606   0  81 349 787  8 47
   85 167  13  82 350 786  0  0
   86 606   0  83 349 787 12 48
   87 167   4  84 350 786  0  0
   88 606   0  85 349 787  3 49
   89 167   6  86 350 786  0  0
   90 606   0  87 349 787  5 50
   91 167  17  88 350 786  0  0
   92 606   0  89 349 787 16 51
   93 167  15  90 350 786  0  0
   94 606   0  91 349 787 14 52
   95 167   3  92 350 786  0  0
   96 606   0  93 349 787  2 53
   97 167  14  94 350 786  0  0
   98 606   0  95 349 787 13 54
   99 167  16  96 350 786  0  0
  100 606   0  97 349 787 15 55
  101 167   3  98 350 786  0  0
  102 606   0  99 349 787  2 56
  103 167   7 100 350 786  0  0
  104 606   0 101 349 787  6 57
  105 167  12 102 350 786  0  0
  106 606   0 103 349 787 11 58
  107 167   6 104 350 786  0  0
  108 606   0 105 349 787  5 59
  109 167  15 106 350 786  0  0
  110 606   0 107 349 787 14 60
  111 167  10 108 350 786  0  0
  112 606   0 109 349 787  9 61
  113 167   9 110 350 786  0  0
  114 606   0 111 349 787  8 62
  115 167  14 112 350 786  0  0
  116 606   0 113 349 787 13 63
  117 167  13 114 350 786  0  0
  118 606   0 115 349 787 12 64
  119 167  11 116 350 786  0  0
  120 606   0 117 349 787 10 65
  121 167   5 118 350 786  0  0
  122 606   0 119 349 787  4 66
  123 167  12 120 350 786  0  0
  124 606   0 121 349 787 11 67
  125 167  11 122 350 786  0  0
  126 606   0 123 349 787 10 68
  127 167  10 124 350 786  0  0
  128 606   0 125 349 787  9 69
  129 167   1 126 350 786  0  0
  130 606   0 127 349 787  1 70
  131 167   9 128 350 786  0  0
  132 606   0 129 349 787  8 71
  133 167   8 130 350 786  0  0
  134 606   0 131 349 787  7 72
  135 167   7 132 350 786  0  0
  136 606   0 133 349 787  6 73
  137 167   6 134 350 786  0  0
  138 606   0 135 349 787  5 74
  139 167   5 136 350 786  0  0
  140 606   0 137 349 787  4 75
  141 167   4 138 350 786  0  0
  142 606   0 139 349 787  3 76
  143 167   3 140 350 786  0  0
  144 606   0 141 349 787  2 77
  145 167   1 142 350 786  0  0
  146 606   0 143 349 787  1 78
  147 167   1 144 350 786  0  0
  148 606   0 145 349 787  1 79
  149 167   3 146 350 786  0  0
  150 606   0 147 349 787  2 80
  151 167   4 148 350 786  0  0
  152 606   0 149 349 787  3 81
  153 167   5 150 350 786  0  0
  154 606   0 151 349 787  4 82
  155 167   6 152 350 786  0  0
  156 606   0 153 349 787  5 83
  157 167   7 154 350 786  0  0
  158 606   0 155 349 787  6 84
  159 167   8 156 350 786  0  0
  160 606   0 157 349 787  7 85
  161 167   9 158 350 786  0  0
  162 606   0 159 349 787  8 86
  163 167   1 160 350 786  0  0
  164 606   0 161 349 787  1 87
  165 167  10 162 350 786  0  0
  166 606   0 163 349 787  9 88
  167 167  11 164 350 786  0  0
  168 606   0 165 349 787 10 89
  169 167  12 166 350 786  0  0
  170 606   0 167 349 787 11 90
  171 167   5 168 350 786  0  0
  172 606   0 169 349 787  4 91
  173 167  11 170 350 786  0  0
  174 606   0 171 349 787 10 92
  175 167  13 172 350 786  0  0
  176 606   0 173 349 787 12 93
  177 167  14 174 350 786  0  0
  178 606   0 175 349 787 13 94
  179 167   9 176 350 786  0  0
  180 606   0 177 349 787  8 95
  181 167  10 178 350 786  0  0
  182 606   0 179 349 787  9 96
  183 167  15 180 350 786  0  0
  184 606   0 181 349 787 14 97
  185 167   6 182 350 786  0  0
  186 606   0 183 349 787  5 98
  187 167  12 184 350 786  0  0
  188 606   0 185 349 787 11 99
  189 167   7 186 350 786  0  0
  190 606   0 187 349 787  6 100
  191 167   3 188 350 786  0  0
  192 606   0 189 349 787  2 101
  193 167  16 190 350 786  0  0
  194 606   0 191 349 787 15 102
  195 167  14 192 350 786  0  0
  196 606   0 193 349 787 13 103
  197 167   3 194 350 786  0  0
  198 606   0 195 349 787  2 104
  199 167  15 196 350 786  0  0
  200 606   0 197 349 787 14 105
  201 167  17 198 350 786  0  0
  202 606   0 199 349 787 16 106
  203 167   6 200 350 786  0  0
  204 606   0 201 349 787  5 107
  205 167   4 202 350 786  0  0
  206 606   0 203 349 787  3 108
  207 167  13 204 350 786  0  0
  208 606   0 205 349 787 12 109
  209 167   9 206 350 786  0  0
  210 606   0 207 349 787  8 110
  211 167  16 208 350 786  0  0
  212 606   0 209 349 787 15 111
  213 167   8 210 350 786  0  0
  214 606   0 211 349 787  7 112
  215 167  11 212 350 786  0  0
  216 606   0 213 349 787 10 113
  217 167  17 214 350 786  0  0
  218 606   0 215 349 787 16 114
  219 167  17 216 350 786  0  0
  220 606   0 217 349 787 16 115
  221 167  11 218 350 786  0  0
  222 606   0 219 349 787 10 116
  223 167   8 220 350 786  0  0
  224 606   0 221 349 787  7 117
  225 167  16 222 350 786  0  0
  226 606   0 223 349 787 15 118
  227 167   9 224 350 786  0  0
  228 606   0 225 349 787  8 119
  229 167  13 226 350 786  0  0
  230 606   0 227 349 787 12 120
  231 167   4 228 350 786  0  0
  232 606   0 229 349 787  3 121
  233 167   6 230 350 786  0  0
  234 606   0 231 349 787  5 122
  235 167  17 232 350 786  0  0
  236 606   0 233 349 787 16 123
  237 167  15 234 350 786  0  0
  238 606   0 235 349 787 14 124
  239 167   3 236 350 786  0  0
  240 606   0 237 349 787  2 125
  241 167  14 238 350 786  0  0
  242 606   0 239 349 787 13 126
  243 167  16 240 350 786  0  0
  244 606   0 241 349 787 15 127
  245 167   3 242 350 786  0  0
  246 606   0 243 349 787  2 128
  247 167   7 244 350 786  0  0
  248 606   0 245 349 787  6 129
  249 167  12 246 350 786  0  0
  250 606   0 247 349 787 11 130
  251 167   6 248 350 786  0  0
  252 606   0 249 349 787  5 131
  253 167  15 250 350 786  0  0
  254 606   0 251 349 787 14 132
  255 167  10 252 350 786  0  0
  256 606   0 253 349 787  9 133
  257 167   9 254 350 786  0  0
  258 606   0 255 349 787  8 134
  259 167  14 256 350 786  0  0
  260 606   0 257 349 787 13 135
  261 167  13 258 350 786  0  0
  262 606   0 259 349 787 12 136
  263 167  11 260 350 786  0  0
  264 606   0 261 349 787 10 137
  265 167   5 262 350 786  0  0
  266 606   0 263 349 787  4 138
  267 167  12 264 350 786  0  0
  268 606   0 265 349 787 11 139
  269 167  11 266 350 786  0  0
  270 606   0 267 349 787 10 140
  271 167  10 268 350 786  0  0
  272 606   0 269 349 787  9 141
  273 167   1 270 350 786  0  0
  274 606   0 271 349 787  1 142
[RF]
1      194.444 741 742 743 50 1470 0 0 0 0 e
2      563.681 744 745 746 5125 100 0 0 0 0 i
3      194.444 741 742 743 50 1470 0 0 0 0.872665 e
4      194.444 741 742 743 50 1470 0 0 0 2.61799 e
5      194.444 741 742 743 50 1470 0 0 0 5.23599 e
6      194.444 741 742 743 50 1470 0 0 0 2.44346 e
7      194.444 741 742 743 50 1470 0 0 0 0.523599 e
8      194.444 741 742 743 50 1470 0 0 0 5.75959 e
9      194.444 741 742 743 50 1470 0 0 0 5.58505 e
10      194.444 741 742 743 50 1470 0 0 0 1.5708 e
11      194.444 741 742 743 50 1470 0 0 0 4.01426 e
12      194.444 741 742 743 50 1470 0 0 0 1.0472 e
13      194.444 741 742 743 50 1470 0 0 0 3.66519 e
14      194.444 741 742 743 50 1470 0 0 0 4.18879 e
15      194.444 741 742 743 50 1470 0 0 0 4.71239 e
16      194.444 741 742 743 50 1470 0 0 0 2.0944 e
17      194.444 741 742 743 50 1470 0 0 0 3.14159 e

# Format of arbitrary gradients:
#   time_shape_id of 0 means default timing (stepping with grad_raster starting at 1/2 of grad_raster)
# id amplitude first last amp_shape_id time_shape_id delay
# ..      Hz/m  Hz/m Hz/m        ..         ..          us
[GRADIENTS]
1       908560            0       340608 1 0 0
2  1.17094e+06       340608            0 2 3 0
3       896059            0       340608 4 0 0
4  1.17102e+06       340608            0 5 6 0
5       883557            0       340608 7 0 0
6  1.14505e+06       340608            0 8 9 0
7       871055            0       340608 10 0 0
8  1.14488e+06       340608            0 11 12 0
9       858554            0       340608 13 0 0
10   1.1447e+06       340608            0 14 15 0
11       846052            0       340608 16 0 0
12  1.14452e+06       340608            0 17 18 0
13       833550            0       340608 19 0 0
14  1.11831e+06       340608            0 20 21 0
15       821049            0       340608 22 0 0
16  1.11786e+06       340608            0 23 24 0
17       808547            0       340608 25 0 0
18  1.11741e+06       340608            0 26 27 0
19       796045            0       340608 28 0 0
20  1.11694e+06       340608            0 29 30 0
21       783544            0       340608 31 0 0
22  1.09048e+06       340608            0 32 33 0
23       771042            0       340608 34 0 0
24  1.08974e+06       340608            0 35 36 0
25       758540            0       340608 37 0 0
26  1.08898e+06       340608            0 38 39 0
27       746039            0       340608 40 0 0
28  1.08822e+06       340608            0 41 42 0
29       733537            0       340608 43 0 0
30  1.08743e+06       340608            0 44 45 0
31       721035            0       340608 46 0 0
32  1.06044e+06       340608            0 47 48 0
33       708534            0       340608 49 0 0
34  1.05937e+06       340608            0 50 51 0
35       696032            0       340608 52 0 0
36  1.05827e+06       340608            0 53 54 0
37       683530            0       340608 55 0 0
38  1.05714e+06       340608            0 56 57 0
39       671029            0       340608 58 0 0
40   1.0299e+06       340608            0 59 60 0
41       658527            0       340608 61 0 0
42  1.03965e+06       340608            0 62 63 0
43       646026            0       340608 64 0 0
44  1.01231e+06       340608            0 65 66 0
45       633524            0       340608 67 0 0
46  1.01067e+06       340608            0 68 69 0
47       621022            0       340608 70 0 0
48    1.009e+06       340608            0 71 72 0
49       608521            0       340608 73 0 0
50  1.00729e+06       340608            0 74 75 0
51       596019            0       340608 76 0 0
52  1.00554e+06       340608            0 77 78 0
53       583517            0       340608 79 0 0
54       977666       340608            0 80 81 0
55       571016            0       340608 82 0 0
56       986672       340608            0 83 84 0
57       558514            0       340608 85 0 0
58       958694       340608            0 86 87 0
59       546012            0       340608 88 0 0
60       956375       340608            0 89 90 0
61       533511            0       340608 91 0 0
62       954002       340608            0 92 93 0
63       521009            0       340608 94 0 0
64       951575       340608            0 95 96 0
65       508507            0       340608 97 0 0
66       949090       340608            0 98 99 0
67       496006            0       340608 100 0 0
68       931403       340608            0 101 102 0
69       483504            0       340608 103 0 0
70       928648       340608            0 104 105 0
71       471002            0       340608 106 0 0
72       925827       340608            0 107 108 0
73       458501            0       340608 109 0 0
74       896908       340608            0 110 111 0
75       445999            0       340608 112 0 0
76       904603       340608            0 113 114 0
77       433498            0       340608 115 0 0
78       901416       340608            0 116 117 0
79       420996            0       340608 118 0 0
80       872089       340608            0 119 120 0
81       408494            0       340608 121 0 0
82       879356       340608            0 122 123 0
83       395993            0       340608 124 0 0
84       875768       340608            0 125 126 0
85       383491            0       340608 127 0 0
86       846028       340608            0 128 129 0
87       370989            0       340608 130 0 0
88       852814       340608            0 131 132 0
89       358488            0       340608 133 0 0
90       848788       340608            0 134 135 0
91       345986            0       340608 136 0 0
92       818632       340608            0 137 138 0
93       340608            0       340608 139 0 0
94       824875       340608            0 140 141 0
95       340608            0       340608 142 0 0
96       820370       340608            0 143 144 0
97       340608            0       340608 145 0 0
98       800324       340608            0 146 147 0
99       340608            0       340608 148 0 0
100       795426       340608            0 149 150 0
101       340608            0       340608 151 0 0
102       790394       340608            0 152 153 0
103       340608            0       340608 154 0 0
104       769799       340608            0 155 156 0
105       340608            0       340608 157 0 0
106       764341       340608            0 158 159 0
107       340608            0       340608 160 0 0
108       743460       340608            0 161 162 0
109       340608            0       340608 163 0 0
110       748091       340608            0 164 165 0
111       340608            0       340608 166 0 0
112       742081       340608            0 167 168 0
113       340608            0       340608 169 0 0
114       720292       340608            0 170 171 0
115       340608            0       340608 172 0 0
116       713785       340608            0 173 174 0
117       340608            0       340608 175 0 0
118       691676       340608            0 176 177 0
119       340608            0       340608 178 0 0
120       695018       340608            0 179 180 0
121       340608            0       340608 181 0 0
122       687822       340608            0 182 183 0
123       340608            0       340608 184 0 0
124       664692       340608            0 185 186 0
125       340608            0       340608 187 0 0
126       641563       340608            0 188 189 0
127       340608            0       340608 190 0 0
128       633419       340608            0 191 192 0
129       340608            0       340608 193 0 0
130       635097       340608            0 194 195 0
131       340608            0       340608 196 0 0
132       610849       340608            0 197 198 0
133       340608            0       340608 199 0 0
134       611830       340608            0 200 201 0
135       340608            0       340608 202 0 0
136       586774       340608            0 203 204 0
137       340608            0       340608 205 0 0
138       586959       340608            0 206 207 0
139       340608            0       340608 208 0 0
140       561039       340608            0 209 210 0
141       340608            0       340608 211 0 0
142       560312       340608            0 212 213 0
143       340608            0       340608 214 0 0
144       533465       340608            0 215 216 0
145       340608            0       340608 217 0 0
146       531690       340608            0 218 219 0
147      -340608            0       340608 220 0 0
148       503849       340608            0 221 222 0
149      -340608            0       340608 223 0 0
150       500867       340608            0 224 225 0
151      -340608            0       340608 226 0 0
152       481209       340608            0 227 228 0
153      -340608            0       340608 229 0 0
154       477120       340608            0 230 231 0
155      -340608            0       340608 232 0 0
156       455739       340608            0 233 234 0
157      -340608            0       340608 235 0 0
158       424418       340608            0 236 237 0
159      -340608            0       340608 238 0 0
160       401461       340608            0 239 240 0
161      -340608            0       340608 241 0 0
162       402407       340608            0 242 243 0
163      -340608            0       340608 244 0 0
164       368239       340608            0 245 246 0
165      -340608            0       340608 247 0 0
166       366822       340608            0 248 249 0
167      -340608            0       340608 250 0 0
168       340608       340608            0 251 252 0
169      -340608            0       340608 253 0 0
170       340608       340608            0 254 255 0
171      -340608            0       340608 256 0 0
172       340608       340608            0 257 258 0
173      -340608            0       340608 259 0 0
174       340608       340608            0 260 261 0
175      -340608            0       340608 262 0 0
176       340608       340608            0 263 264 0
177      -340608            0       340608 265 0 0
178       340608       340608            0 266 267 0
179      -340608            0       340608 268 0 0
180       340608       340608            0 269 270 0
181      -340608            0       340608 271 0 0
182       340608       340608            0 272 273 0
183      -340608            0       340608 274 0 0
184       340608       340608            0 275 276 0
185      -340608            0       340608 277 0 0
186       340608       340608            0 278 279 0
187      -340608            0       340608 280 0 0
188       348564       340608            0 281 282 0
189      -340608            0       340608 283 0 0
190       393799       340608            0 284 285 0
191      -340608            0       340608 286 0 0
192       344437       340608            0 287 288 0
193      -340608            0       340608 289 0 0
194       396943       340608            0 290 291 0
195      -340608            0       340608 292 0 0
196       449797       340608            0 293 294 0
197      -340608            0       340608 295 0 0
198       418187       340608            0 296 297 0
199      -340608            0       340608 298 0 0
200       447971       340608            0 299 300 0
201      -345307            0       340608 301 0 0
202       475465       340608            0 302 303 0
203      -357809            0       340608 304 0 0
204       500921       340608            0 305 306 0
205      -370310            0       340608 307 0 0
206       524559       340608            0 308 309 0
207      -382812            0       340608 310 0 0
208       528348       340608            0 311 312 0
209      -395314            0       340608 313 0 0
210       555754       340608            0 314 315 0
211      -407815            0       340608 316 0 0
212       557357       340608            0 317 318 0
213      -420317            0       340608 319 0 0
214       583050       340608            0 320 321 0
215      -432818            0       340608 322 0 0
216       582953       340608            0 323 324 0
217      -445320            0       340608 325 0 0
218       607135       340608            0 326 327 0
219      -457822            0       340608 328 0 0
220       605705       340608            0 329 330 0
221      -470323            0       340608 331 0 0
222       628543       340608            0 332 333 0
223      -482825            0       340608 334 0 0
224       633777       340608            0 335 336 0
225      -495327            0       340608 337 0 0
226       631090       340608            0 338 339 0
227      -507828            0       340608 340 0 0
228       635868       340608            0 341 342 0
229      -520330            0       340608 343 0 0
230       633274       340608            0 344 345 0
231      -532832            0       340608 346 0 0
232       685388       340608            0 347 348 0
233      -545333            0       340608 349 0 0
234       688645       340608            0 350 351 0
235      -557835            0       340608 352 0 0
236       708221       340608            0 353 354 0
237      -570337            0       340608 355 0 0
238       710871       340608            0 356 357 0
239      -582838            0       340608 358 0 0
240       713401       340608            0 359 360 0
241      -595340            0       340608 361 0 0
242       738525       340608            0 362 363 0
243      -607842            0       340608 364 0 0
244       740344       340608            0 365 366 0
245      -620343            0       340608 367 0 0
246       742085       340608            0 368 369 0
247      -632845            0       340608 370 0 0
248       759578       340608            0 371 372 0
249      -645347            0       340608 373 0 0
250       791566       340608            0 374 375 0
251      -657848            0       340608 376 0 0
252       792203       340608            0 377 378 0
253      -670350            0       340608 379 0 0
254       792815       340608            0 380 381 0
255      -682851            0       340608 382 0 0
256       793403       340608            0 383 384 0
257      -695353            0       340608 385 0 0
258       814003       340608            0 386 387 0
259      -707855            0       340608 388 0 0
260       814160       340608            0 389 390 0
261      -720356            0       340608 391 0 0
262       814311       340608            0 392 393 0
263      -732858            0       340608 394 0 0
264       842677       340608            0 395 396 0
265      -745360            0       340608 397 0 0
266       842298       340608            0 398 399 0
267      -757861            0       340608 400 0 0
268       841932       340608            0 401 402 0
269      -770363            0       340608 403 0 0
270       869267       340608            0 404 405 0
271      -782865            0       340608 406 0 0
272       868426       340608            0 407 408 0
273      -795366            0       340608 409 0 0
274       867615       340608            0 410 411 0
275      -807868            0       340608 412 0 0
276       893990       340608            0 413 414 0
277      -820370            0       340608 415 0 0
278       902439       340608            0 416 417 0
279      -832871            0       340608 418 0 0
280       901055       340608            0 419 420 0
281      -845373            0       340608 421 0 0
282       926976       340608            0 422 423 0
283      -857875            0       340608 424 0 0
284       925199       340608            0 425 426 0
285      -870376            0       340608 427 0 0
286       950681       340608            0 428 429 0
287      -882878            0       340608 430 0 0
288       948539       340608            0 431 432 0
289      -895379            0       340608 433 0 0
290       946468       340608            0 434 435 0
291      -907881            0       340608 436 0 0
292       955451       340608            0 437 438 0
293      -920383            0       340608 439 0 0
294       953335       340608            0 440 441 0
295      -932884            0       340608 442 0 0
296       977199       340608            0 443 444 0
297      -945386            0       340608 445 0 0
298       974776       340608            0 446 447 0
299      -957888            0       340608 448 0 0
300       982301       340608            0 449 450 0
301      -970389            0       340608 451 0 0
302  1.00579e+06       340608            0 452 453 0
303      -982891            0       340608 454 0 0
304  1.00297e+06       340608            0 455 456 0
305      -995393            0       340608 457 0 0
306   1.0261e+06       340608            0 458 459 0
307 -1.00789e+06            0       340608 460 0 0
308  1.00774e+06       340608            0 461 462 0
309  -1.0204e+06            0       340608 463 0 0
310  1.03018e+06       340608            0 464 465 0
311  -1.0329e+06            0       340608 466 0 0
312  1.02712e+06       340608            0 467 468 0
313  -1.0454e+06            0       340608 469 0 0
314   1.0342e+06       340608            0 470 471 0
315  -1.0579e+06            0       340608 472 0 0
316  1.05631e+06       340608            0 473 474 0
317  -1.0704e+06            0       340608 475 0 0
318  1.05292e+06       340608            0 476 477 0
319  -1.0829e+06            0       340608 478 0 0
320  1.05935e+06       340608            0 479 480 0
321 -1.09541e+06            0       340608 481 0 0
322  1.05601e+06       340608            0 482 483 0
323 -1.10791e+06            0       340608 484 0 0
324  1.08771e+06       340608            0 485 486 0
325 -1.12041e+06            0       340608 487 0 0
326  1.08397e+06       340608            0 488 489 0
327 -1.13291e+06            0       340608 490 0 0
328  1.10514e+06       340608            0 491 492 0
329 -1.14541e+06            0       340608 493 0 0
330  1.08613e+06       340608            0 494 495 0
331 -1.15791e+06            0       340608 496 0 0
332  1.10672e+06       340608            0 497 498 0
333 -1.17042e+06            0       340608 499 0 0
334  1.11332e+06       340608            0 500 501 0
335 -1.18292e+06            0       340608 502 0 0
336  1.13391e+06       340608            0 503 504 0
337 -1.19542e+06            0       340608 505 0 0
338  1.11464e+06       340608            0 506 507 0
339 -1.20792e+06            0       340608 508 0 0
340  1.13468e+06       340608            0 509 510 0
341 -1.22042e+06            0       340608 511 0 0
342   1.1411e+06       340608            0 512 513 0
343 -1.23292e+06            0       340608 514 0 0
344  1.16115e+06       340608            0 515 516 0
345       961538            0            0 517 0 0
347       952797            0            0 518 0 0
349       944056            0            0 519 0 0
351       935315            0            0 520 0 0
353       926573            0            0 521 0 0
355       917832            0            0 522 0 0
357       909091            0            0 523 0 0
359       900350            0            0 524 0 0
361       891608            0            0 525 0 0
363       882867            0            0 526 0 0
365       874126            0            0 527 0 0
367       865385            0            0 528 0 0
369       856643            0            0 529 0 0
371       847902            0            0 530 0 0
373       839161            0            0 531 0 0
375       830420            0            0 532 0 0
377       821678            0            0 533 0 0
379       812937            0            0 534 0 0
381       804196            0            0 535 0 0
383       795455            0            0 536 0 0
385       786713            0            0 537 0 0
387       777972            0            0 538 0 0
389       769231            0            0 539 0 0
