# Pulseq sequence file
# Created by MATLAB mr toolbox

[VERSION]
major 1
minor 4
revision 1

[DEFINITIONS]
AdcRasterTime 1e-07 
Averages 1 
BlockDurationRaster 1e-05 
CalibrationACSSetID 4 
CalibrationAllSetsInRefscan 1 
CalibrationNSets 5 
CalibrationNacs 32 
CalibrationNcalib1 72 
CalibrationNcalib2 1 
CalibrationRefscanNLin 72 
CalibrationRefscanNPar 72 
CalibrationSlabRephaserSeparate 1 
CalibrationTE 0.0042425 
CalibrationTR 0.00871 
EncodedSlabThickness 0.18 
FOV 0.22 0.172 0.18 
FlipAngle 15 
GradientRasterTime 1e-05 
KspaceOrdering negative_to_positive 
Name gre_3d_wave_FC_FOV220x172x180_res0p88x0p8776x2p5_E1_Ry3_Rz1_os4_amp8_cyc10_TRA_prisma 
Nechoes 1 
Nx 250 
Nx_os 1000 
Ny 196 
Ny_meas 65 
Nz 72 
Nz_meas 72 
OrientationMapping TRA 
PartitionResolution 0.352 
PhaseResolution 1.0027907 
RadiofrequencyRasterTime 1e-06 
ReadoutDuration 0.005 
ReadoutOversamplingFactor 4 
ReadoutPolarity monopolar 
ReceiverGainHigh 1 
Ry 3 
Rz 1 
SliceOversampling 0.125 
SliceThickness 0.16 
TE 0.02 
TR 0.03 
TargetFOV 0.22 0.22 0.16 
TotalDuration 163.87602 
UseFlowComp 1 
UseFullInitialFC 1 
UseFullInterEchoFC 0 
WaveAmplitude_mTm 8 
WaveCosChannel z 
WaveCycles 10 
WaveSinChannel y 
WaveSlew_Tms 200 
kSpaceCenterLine 98 
kSpaceCenterPartition 36 

# Format of blocks:
# NUM DUR RF  GX  GY  GZ  ADC  EXT
[BLOCKS]
    1 120   1   0   0 810  0  0
    2 1367   0   0   0 395  0  0
    3 312   0 539 638 772  0  0
    4 523   0 808   2   1  0  0
    5 678   0 809 200 468  0  0
    6 120   2   0   0 810  0  0
    7 1367   0   0   0 395  0  0
    8 312   0 539 638 772  0  0
    9 523   0 808   2   1  0  0
   10 678   0 809 200 468  0  0
   11 120   3   0   0 810  0  0
   12 1367   0   0   0 395  0  0
   13 312   0 539 638 772  0  0
   14 523   0 808   2   1  0  0
   15 678   0 809 200 468  0  0
   16 120   4   0   0 810  0  0
   17 1367   0   0   0 395  0  0
   18 312   0 539 638 772  0  0
   19 523   0 808   2   1  0  0
   20 678   0 809 200 468  0  0
   21 120   5   0   0 810  0  0
   22 1367   0   0   0 395  0  0
   23 312   0 539 638 772  0  0
   24 523   0 808   2   1  0  0
   25 678   0 809 200 468  0  0
   26 120   6   0   0 810  0  0
   27 1367   0   0   0 395  0  0
   28 312   0 539 638 772  0  0
   29 523   0 808   2   1  0  0
   30 678   0 809 200 468  0  0
   31 120   7   0   0 810  0  0
   32 1367   0   0   0 395  0  0
   33 312   0 539 638 772  0  0
   34 523   0 808   2   1  0  0
   35 678   0 809 200 468  0  0
   36 120   8   0   0 810  0  0
   37 1367   0   0   0 395  0  0
   38 312   0 539 638 772  0  0
   39 523   0 808   2   1  0  0
   40 678   0 809 200 468  0  0
   41 120   1   0   0 810  0  0
   42 1367   0   0   0 395  0  0
   43 312   0 539 638 772  0  0
   44 523   0 808   2   1  0  0
   45 678   0 809 200 468  0  0
   46 120   9   0   0 810  0  0
   47 1367   0   0   0 395  0  0
   48 312   0 539 638 772  0  0
   49 523   0 808   2   1  0  0
   50 678   0 809 200 468  0  0
   51 120  10   0   0 810  0  0
   52 1367   0   0   0 395  0  0
   53 312   0 539 638 772  0  0
   54 523   0 808   2   1  0  0
   55 678   0 809 200 468  0  0
   56 120  11   0   0 810  0  0
   57 1367   0   0   0 395  0  0
   58 312   0 539 638 772  0  0
   59 523   0 808   2   1  0  0
   60 678   0 809 200 468  0  0
   61 120   4   0   0 810  0  0
   62 1367   0   0   0 395  0  0
   63 312   0 539 638 772  0  0
   64 523   0 808   2   1  0  0
   65 678   0 809 200 468  0  0
   66 120  10   0   0 810  0  0
   67 1367   0   0   0 395  0  0
   68 312   0 539 638 772  0  0
   69 523   0 808   2   1  0  0
   70 678   0 809 200 468  0  0
   71 120  12   0   0 810  0  0
   72 1367   0   0   0 395  0  0
   73 312   0 539 638 772  0  0
   74 523   0 808   2   1  0  0
   75 678   0 809 200 468  0  0
   76 120  13   0   0 810  0  0
   77 1367   0   0   0 395  0  0
   78 312   0 539 638 772  0  0
   79 523   0 808   2   1  0  0
   80 678   0 809 200 468  0  0
   81 120   8   0   0 810  0  0
   82 1367   0   0   0 395  0  0
   83 312   0 539 638 772  0  0
   84 523   0 808   2   1  0  0
   85 678   0 809 200 468  0  0
   86 120   9   0   0 810  0  0
   87 1367   0   0   0 395  0  0
   88 312   0 539 638 772  0  0
   89 523   0 808   2   1  0  0
   90 678   0 809 200 468  0  0
   91 120  14   0   0 810  0  0
   92 1367   0   0   0 395  0  0
   93 312   0 539 638 772  0  0
   94 523   0 808   2   1  0  0
   95 678   0 809 200 468  0  0
   96 120   5   0   0 810  0  0
   97 1367   0   0   0 395  0  0
   98 312   0 539 638 772  0  0
   99 523   0 808   2   1  0  0
  100 678   0 809 200 468  0  0
  101 120  11   0   0 810  0  0
  102 1367   0   0   0 395  0  0
  103 312   0 539 638 772  0  0
  104 523   0 808   2   1  0  0
  105 678   0 809 200 468  0  0
  106 120   6   0   0 810  0  0
  107 1367   0   0   0 395  0  0
  108 312   0 539 638 772  0  0
  109 523   0 808   2   1  0  0
  110 678   0 809 200 468  0  0
  111 120   2   0   0 810  0  0
  112 1367   0   0   0 395  0  0
  113 312   0 539 638 772  0  0
  114 523   0 808   2   1  0  0
  115 678   0 809 200 468  0  0
  116 120  15   0   0 810  0  0
  117 1367   0   0   0 395  0  0
  118 312   0 539 638 772  0  0
  119 523   0 808   2   1  0  0
  120 678   0 809 200 468  0  0
  121 120  13   0   0 810  0  0
  122 1367   0   0   0 395  0  0
  123 312   0 539 638 772  0  0
  124 523   0 808   2   1  0  0
  125 678   0 809 200 468  0  0
  126 120   2   0   0 810  0  0
  127 1367   0   0   0 395  0  0
  128 312   0 539 638 772  0  0
  129 523   0 808   2   1  0  0
  130 678   0 809 200 468  0  0
  131 120  14   0   0 810  0  0
  132 1367   0   0   0 395  0  0
  133 312   0 539 638 772  0  0
  134 523   0 808   2   1  0  0
  135 678   0 809 200 468  0  0
  136 120  16   0   0 810  0  0
  137 1367   0   0   0 395  0  0
  138 312   0 539 638 772  0  0
  139 523   0 808   2   1  0  0
  140 678   0 809 200 468  0  0
  141 120   5   0   0 810  0  0
  142 1367   0   0   0 395  0  0
  143 312   0 539 638 772  0  0
  144 523   0 808   2   1  0  0
  145 678   0 809 200 468  0  0
  146 120   3   0   0 810  0  0
  147 1367   0   0   0 395  0  0
  148 312   0 539 638 772  0  0
  149 523   0 808   2   1  0  0
  150 678   0 809 200 468  0  0
  151 120  12   0   0 810  0  0
  152 1367   0   0   0 395  0  0
  153 312   0 539 638 772  0  0
  154 523   0 808   2   1  0  0
  155 678   0 809 200 468  0  0
  156 120   8   0   0 810  0  0
  157 1367   0   0   0 395  0  0
  158 312   0 539 638 772  0  0
  159 523   0 808   2   1  0  0
  160 678   0 809 200 468  0  0
  161 120  15   0   0 810  0  0
  162 1367   0   0   0 395  0  0
  163 312   0 539 638 772  0  0
  164 523   0 808   2   1  0  0
  165 678   0 809 200 468  0  0
  166 120   7   0   0 810  0  0
  167 1367   0   0   0 395  0  0
  168 312   0 539 638 772  0  0
  169 523   0 808   2   1  0  0
  170 678   0 809 200 468  0  0
  171 120  10   0   0 810  0  0
  172 1367   0   0   0 395  0  0
  173 312   0 539 638 772  0  0
  174 523   0 808   2   1  0  0
  175 678   0 809 200 468  0  0
  176 120  16   0   0 810  0  0
  177 1367   0   0   0 395  0  0
  178 312   0 539 638 772  0  0
  179 523   0 808   2   1  0  0
  180 678   0 809 200 468  0  0
  181 120  16   0   0 810  0  0
  182 1367   0   0   0 395  0  0
  183 312   0 539 638 772  0  0
  184 523   0 808   2   1  0  0
  185 678   0 809 200 468  0  0
  186 120  10   0   0 810  0  0
  187 1367   0   0   0 395  0  0
  188 312   0 539 638 772  0  0
  189 523   0 808   2   1  0  0
  190 678   0 809 200 468  0  0
  191 120   7   0   0 810  0  0
  192 1367   0   0   0 395  0  0
  193 312   0 539 638 772  0  0
  194 523   0 808   2   1  0  0
  195 678   0 809 200 468  0  0
  196 120  15   0   0 810  0  0
  197 1367   0   0   0 395  0  0
  198 312   0 539 638 772  0  0
  199 523   0 808   2   1  0  0
  200 678   0 809 200 468  0  0
  201 120   8   0   0 810  0  0
  202 1367   0   0   0 395  0  0
  203 312   0 539 638 772  0  0
  204 523   0 808   2   1  0  0
  205 678   0 809 200 468  0  0
  206 120  12   0   0 810  0  0
  207 1367   0   0   0 395  0  0
  208 312   0 539 638 772  0  0
  209 523   0 808   2   1  0  0
  210 678   0 809 200 468  0  0
  211 120   3   0   0 810  0  0
  212 1367   0   0   0 395  0  0
  213 312   0 539 638 772  0  0
  214 523   0 808   2   1  0  0
  215 678   0 809 200 468  0  0
  216 120   5   0   0 810  0  0
  217 1367   0   0   0 395  0  0
  218 312   0 539 638 772  0  0
  219 523   0 808   2   1  0  0
  220 678   0 809 200 468  0  0
  221 120  16   0   0 810  0  0
  222 1367   0   0   0 395  0  0
  223 312   0 539 638 772  0  0
  224 523   0 808   2   1  0  0
  225 678   0 809 200 468  0  0
  226 120  14   0   0 810  0  0
  227 1367   0   0   0 395  0  0
  228 312   0 539 638 772  0  0
  229 523   0 808   2   1  0  0
  230 678   0 809 200 468  0  0
  231 120   2   0   0 810  0  0
  232 1367   0   0   0 395  0  0
  233 312   0 539 638 772  0  0
  234 523   0 808   2   1  0  0
  235 678   0 809 200 468  0  0
  236 120  13   0   0 810  0  0
  237 1367   0   0   0 395  0  0
  238 312   0 539 638 772  0  0
  239 523   0 808   2   1  0  0
  240 678   0 809 200 468  0  0
  241 120  15   0   0 810  0  0
  242 1367   0   0   0 395  0  0
  243 312   0 539 638 772  0  0
  244 523   0 808   2   1  0  0
  245 678   0 809 200 468  0  0
  246 120   2   0   0 810  0  0
  247 1367   0   0   0 395  0  0
  248 312   0 539 638 772  0  0
  249 523   0 808   2   1  0  0
  250 678   0 809 200 468  0  0
  251 120   6   0   0 810  0  0
  252 1367   0   0   0 395  0  0
  253 312   0 539 638 772  0  0
  254 523   0 808   2   1  0  0
  255 678   0 809 200 468  0  0
  256 120  11   0   0 810  0  0
  257 1367   0   0   0 395  0  0
  258 312   0 539 638 772  0  0
  259 523   0 808   2   1  0  0
  260 678   0 809 200 468  0  0
  261 120   5   0   0 810  0  0
  262 1367   0   0   0 395  0  0
  263 312   0 539 638 772  0  0
  264 523   0 808   2   1  0  0
  265 678   0 809 200 468  0  0
  266 120  14   0   0 810  0  0
  267 1367   0   0   0 395  0  0
  268 312   0 539 638 772  0  0
  269 523   0 808   2   1  0  0
[RF]
1      835.829 276 277 0 100 0 0
2      835.829 276 277 0 100 0 0.872665
3      835.829 276 277 0 100 0 2.61799
4      835.829 276 277 0 100 0 5.23599
5      835.829 276 277 0 100 0 2.44346
6      835.829 276 277 0 100 0 0.523599
7      835.829 276 277 0 100 0 5.75959
8      835.829 276 277 0 100 0 5.58505
9      835.829 276 277 0 100 0 1.5708
10      835.829 276 277 0 100 0 4.01426
11      835.829 276 277 0 100 0 1.0472
12      835.829 276 277 0 100 0 3.66519
13      835.829 276 277 0 100 0 4.18879
14      835.829 276 277 0 100 0 4.71239
15      835.829 276 277 0 100 0 2.0944
16      835.829 276 277 0 100 0 3.14159

# Format of arbitrary gradients:
#   time_shape_id of 0 means default timing (stepping with grad_raster starting at 1/2 of grad_raster)
# id amplitude amp_shape_id time_shape_id delay
# ..      Hz/m       ..         ..          us
[GRADIENTS]
1       340608 1 0 0
2       339936 2 0 0
395      -636104 3 4 0
539  1.44875e+06 5 6 0
540  1.91493e+06 7 6 0
541  1.89489e+06 8 6 0
542  1.87485e+06 9 6 0
543   1.8548e+06 10 6 0
544  1.83476e+06 11 6 0
545  1.81472e+06 12 6 0
546  1.79468e+06 13 6 0
547  1.77463e+06 14 6 0
548  1.75459e+06 15 6 0
549  1.73455e+06 16 6 0
550   1.7145e+06 17 6 0
551  1.69446e+06 18 6 0
552  1.67442e+06 19 6 0
553  1.65437e+06 20 6 0
554  1.63433e+06 21 6 0
555  1.61429e+06 22 6 0
556  1.59424e+06 23 6 0
557   1.5742e+06 24 6 0
558  1.55416e+06 25 6 0
559  1.53411e+06 26 6 0
560  1.51407e+06 27 6 0
561  1.49403e+06 28 6 0
562  1.47398e+06 29 6 0
563  1.45394e+06 30 6 0
564   1.4339e+06 31 6 0
565  1.41386e+06 32 6 0
566  1.39381e+06 33 6 0
567  1.37377e+06 34 6 0
568  1.35373e+06 35 6 0
569  1.33368e+06 36 6 0
570  1.31364e+06 37 6 0
571   1.2936e+06 38 6 0
572  1.27355e+06 39 6 0
573  1.25351e+06 40 6 0
574  1.23347e+06 41 6 0
575  1.21342e+06 42 6 0
576  1.19338e+06 43 6 0
577  1.17334e+06 44 6 0
578  1.15329e+06 45 6 0
579  1.13325e+06 46 6 0
580  1.11321e+06 47 6 0
581  1.09316e+06 48 6 0
582  1.07312e+06 49 6 0
583  1.05308e+06 50 6 0
584  1.03304e+06 51 6 0
585  1.01299e+06 52 6 0
586       992949 53 6 0
587       972906 54 6 0
588       952863 55 6 0
589       932820 56 6 0
590       912776 57 6 0
591       892733 58 6 0
592       872690 59 6 0
593       852647 60 6 0
594       832604 61 6 0
595       812561 62 6 0
596       792517 63 6 0
597       772474 64 6 0
598       752431 65 6 0
599       732388 66 6 0
600       712345 67 6 0
601       692302 68 6 0
602       672258 69 6 0
603       652215 70 6 0
604       632172 71 6 0
605       612129 72 6 0
606       592086 73 6 0
607       572043 74 6 0
608       551999 75 6 0
609       531956 76 6 0
610       511913 77 6 0
611       491870 78 6 0
612       471827 79 6 0
613       451784 80 6 0
614       431741 81 6 0
615       411697 82 6 0
616       391654 83 6 0
617       371611 84 6 0
618       351568 85 6 0
619       331525 86 6 0
620       311482 87 6 0
621       291438 88 6 0
622       271395 89 6 0
623       251352 90 6 0
624       231309 91 6 0
625       211266 92 6 0
626       191223 93 6 0
627       171179 94 6 0
628       151136 95 6 0
629       131093 96 6 0
630       111050 97 6 0
631      91006.8 98 6 0
632      70963.6 99 6 0
633      50920.5 100 6 0
634      30877.3 101 6 0
635     -10905.9 102 103 0
636     -18740.1 104 6 0
637     -34017.7 105 6 0
638     -49295.3 106 6 0
639     -69338.5 107 6 0
640     -89381.6 108 6 0
641      -109425 109 6 0
642      -129468 110 6 0
643      -149511 111 6 0
644      -169554 112 6 0
645      -189597 113 6 0
646      -209641 114 6 0
647      -229684 115 6 0
648      -249727 116 6 0
649      -269770 117 6 0
650      -289813 118 6 0
651      -309856 119 6 0
652      -329900 120 6 0
653      -349943 121 6 0
654      -369986 122 6 0
655      -390029 123 6 0
656      -410072 124 6 0
657      -430115 125 6 0
658      -450159 126 6 0
659      -470202 127 6 0
660      -490245 128 6 0
661      -510288 129 6 0
662      -530331 130 6 0
663      -550374 131 6 0
664      -570417 132 6 0
665      -590461 133 6 0
666      -610504 134 6 0
667      -630547 135 6 0
668      -650590 136 6 0
669      -670633 137 6 0
670      -690676 138 6 0
671      -710720 139 6 0
672      -730763 140 6 0
673      -750806 141 6 0
674      -770849 142 6 0
675      -790892 143 6 0
676      -810935 144 6 0
677      -830979 145 6 0
678      -851022 146 6 0
679      -871065 147 6 0
680      -891108 148 6 0
681      -911151 149 6 0
682      -931194 150 6 0
683      -951238 151 6 0
684      -971281 152 6 0
685      -991324 153 6 0
686 -1.01137e+06 154 6 0
687 -1.03141e+06 155 6 0
688 -1.05145e+06 156 6 0
689  -1.0715e+06 157 6 0
690 -1.09154e+06 158 6 0
691 -1.11158e+06 159 6 0
692 -1.13163e+06 160 6 0
693 -1.15167e+06 161 6 0
694 -1.17171e+06 162 6 0
695 -1.19176e+06 163 6 0
696  -1.2118e+06 164 6 0
697 -1.23184e+06 165 6 0
698 -1.25188e+06 166 6 0
699 -1.27193e+06 167 6 0
700 -1.29197e+06 168 6 0
701 -1.31201e+06 169 6 0
702 -1.33206e+06 170 6 0
703  -1.3521e+06 171 6 0
704 -1.37214e+06 172 6 0
705 -1.39219e+06 173 6 0
706 -1.41223e+06 174 6 0
707 -1.43227e+06 175 6 0
708 -1.45232e+06 176 6 0
709 -1.47236e+06 177 6 0
710  -1.4924e+06 178 6 0
711 -1.51245e+06 179 6 0
712 -1.53249e+06 180 6 0
713 -1.55253e+06 181 6 0
714 -1.57258e+06 182 6 0
715 -1.59262e+06 183 6 0
716 -1.61266e+06 184 6 0
717  -1.6327e+06 185 6 0
718 -1.65275e+06 186 6 0
719 -1.67279e+06 187 6 0
720 -1.69283e+06 188 6 0
721 -1.71288e+06 189 6 0
722 -1.73292e+06 190 6 0
723 -1.75296e+06 191 6 0
724 -1.77301e+06 192 6 0
725 -1.79305e+06 193 6 0
726 -1.81309e+06 194 6 0
727 -1.83314e+06 195 6 0
728 -1.85318e+06 196 6 0
729 -1.87322e+06 197 6 0
730 -1.89327e+06 198 6 0
731 -1.91331e+06 199 6 0
732 -1.93335e+06 200 6 0
733  -1.9534e+06 201 6 0
734 -1.97344e+06 202 6 0
735 -1.99348e+06 203 6 0
736       719307 204 6 0
737       700155 205 6 0
738       681002 206 6 0
739       661850 207 6 0
740       642698 208 6 0
741       623545 209 6 0
742       604393 210 6 0
743       585240 211 6 0
744       566088 212 6 0
745       546936 213 6 0
746       527783 214 6 0
747       508631 215 6 0
748       489479 216 6 0
749       470326 217 6 0
750       451174 218 6 0
751       432022 219 6 0
752       412869 220 6 0
753       393717 221 6 0
754       374565 222 6 0
755       355412 223 6 0
756       336260 224 6 0
757       317108 225 6 0
758       297955 226 6 0
759       278803 227 6 0
760       259650 228 6 0
761       240498 229 6 0
762       221346 230 6 0
763       202193 231 6 0
764       183041 232 6 0
765       163889 233 6 0
766       144736 234 6 0
767       125584 235 6 0
768       106432 236 6 0
769      87279.3 237 6 0
770      68126.9 238 6 0
771      48974.6 239 6 0
772      29822.2 240 6 0
773     -10750.1 241 103 0
774     -15428.3 242 6 0
775     -30026.9 243 6 0
776     -46787.2 244 6 0
777     -65939.5 245 6 0
778     -85091.9 246 6 0
779      -104244 247 6 0
780      -123397 248 6 0
781      -142549 249 6 0
782      -161701 250 6 0
783      -180854 251 6 0
784      -200006 252 6 0
785      -219158 253 6 0
786      -238311 254 6 0
787      -257463 255 6 0
788      -276615 256 6 0
789      -295768 257 6 0
790      -314920 258 6 0
791      -334072 259 6 0
792      -353225 260 6 0
793      -372377 261 6 0
794      -391530 262 6 0
795      -410682 263 6 0
796      -429834 264 6 0
797      -448987 265 6 0
798      -468139 266 6 0
799      -487291 267 6 0
800      -506444 268 6 0
801      -525596 269 6 0
802      -544748 270 6 0
803      -563901 271 6 0
804      -583053 272 6 0
805      -602205 273 6 0
806      -621358 274 6 0
807      -640510 275 6 0
813      -629989 278 0 0
814       821921 279 280 0
817      -617219 281 0 0
818       823206 282 283 0
821      -604450 284 0 0
822       786913 285 286 0
825      -591680 287 0 0
826       787334 288 289 0
829      -578910 290 0 0
830       787777 291 292 0
833      -566141 293 0 0
834       749574 294 295 0
837      -553371 296 0 0
838       760353 297 298 0
841      -540601 299 0 0
842       760063 300 301 0
845      -527832 302 0 0
846       718585 303 304 0
849      -515062 305 0 0
850       717058 306 307 0
853      -502292 308 0 0
854       715438 309 310 0
857      -489523 311 0 0
858       713718 312 313 0
861      -476753 314 0 0
862       648098 315 316 0
865      -463983 317 0 0
866       654069 318 319 0
869      -451214 320 0 0
870       650188 321 322 0
873      -438444 323 0 0
874       646039 324 325 0
877      -425674 326 0 0
878       619470 327 328 0
881      -412905 329 0 0
882       614076 330 331 0
885      -400135 332 0 0
886       550064 333 334 0
889      -387365 335 0 0
890       549642 336 337 0
893      -374596 338 0 0
894       513362 339 340 0
897      -361826 341 0 0
898       517044 342 343 0
901      -349056 344 0 0
902       479167 345 346 0
905      -340608 347 0 0
906       478521 348 349 0
909      -340608 350 0 0
910       448397 351 352 0
913      -340608 353 0 0
914       411707 354 355 0
917      -340608 356 0 0
918       475364 357 358 0
921      -340608 359 0 0
922       413636 360 361 0
925      -340608 362 0 0
926       374608 363 364 0
929      -340608 365 0 0
930       348215 366 367 0
933      -340608 368 0 0
934       342517 369 370 0
937      -340608 371 0 0
938       340608 372 373 0
941      -340608 374 0 0
942       340608 375 376 0
945      -340608 377 0 0
946       340608 378 379 0
949      -340608 380 0 0
950       340608 381 382 0
953      -340608 383 0 0
954       340608 384 385 0
957      -340608 386 0 0
958       340608 387 388 0
961      -340608 389 0 0
962       340608 390 391 0
965      -340608 392 0 0
966       340884 393 394 0
969      -340608 395 0 0
970       343564 396 397 0
973      -340608 398 0 0
974       376157 399 400 0
977      -340608 401 0 0
978       406887 402 403 0
981      -340608 404 0 0
982       414924 405 406 0
985      -340608 407 0 0
986       454159 408 409 0
989      -340608 410 0 0
990       480411 411 412 0
993      -340608 413 0 0
994       484168 414 415 0
997      -340608 416 0 0
998       487567 417 418 0
1001      -340608 419 0 0
1002       522132 420 421 0
1005      -340608 422 0 0
1006       543750 423 424 0
1009      -340608 425 0 0
1010       556645 426 427 0
1013       340608 428 0 0
1014       556598 429 430 0
1017       340608 431 0 0
1018       588157 432 433 0
1021       340608 434 0 0
1022       619716 435 436 0
1025       340608 437 0 0
1026       617043 438 439 0
1029       340608 440 0 0
1030       627126 441 442 0
1033       340608 443 0 0
1034       656752 444 445 0
1037       340608 446 0 0
1038       652784 447 448 0
1041       340608 449 0 0
1042       661598 450 451 0
1045       340608 452 0 0
1046       689516 453 454 0
1049       340608 455 0 0
1050       717433 456 457 0
1053       340608 458 0 0
1054       724861 459 460 0
1057       340608 461 0 0
1058       718705 462 463 0
1061       340608 464 0 0
1062       758898 465 466 0
1065       340608 467 0 0
1066       765302 468 469 0
1069       340608 470 0 0
1070       757942 471 472 0
1073       340608 473 0 0
1074       764031 474 475 0
1077       340608 476 0 0
1078       789061 477 478 0
1081       340608 479 0 0
1082       794519 480 481 0
1085       340608 482 0 0
1086       799796 483 484 0
1089       340608 485 0 0
1090       823991 486 487 0
1093       340608 488 0 0
1094       828698 489 490 0
1097       340608 491 0 0
1098       833253 492 493 0
1101 -1.18702e+06 494 0 0
1104  -1.1749e+06 495 0 0
1107 -1.16279e+06 496 0 0
1111 -1.15068e+06 497 0 0
1115 -1.13857e+06 498 0 0
1119 -1.12645e+06 499 0 0
1123 -1.11434e+06 500 0 0
1127 -1.10223e+06 501 0 0
1131 -1.09012e+06 502 0 0
1135   -1.078e+06 503 0 0
1139 -1.06589e+06 504 0 0
1143 -1.05378e+06 505 0 0
1147 -1.04167e+06 506 0 0
1151 -1.02955e+06 507 0 0
1155 -1.01744e+06 508 0 0
1159 -1.00533e+06 509 0 0
1163      -993217 510 0 0
1167      -981105 511 0 0
1171      -968992 512 0 0
1175      -956880 513 0 0
1179      -944767 514 0 0
1183      -932655 515 0 0
1187      -920543 516 0 0
1191      -908430 517 0 0
1195      -896318 518 0 0
1199      -884205 519 0 0
1203      -872093 520 0 0
1207      -859981 521 0 0
1211      -847868 522 0 0
1215      -835756 523 0 0
1219      -823643 524 0 0
1223      -811531 525 0 0
1227      -799419 526 0 0
1231      -787306 527 0 0
1235      -775194 528 0 0
1239      -763081 529 0 0
1243      -750969 530 0 0
1247      -738857 531 0 0
1251      -726744 532 0 0
1255      -714632 533 0 0
1259      -702519 534 0 0
1263      -690407 535 0 0
1267      -678295 536 0 0
1271      -666182 537 0 0
1275      -654070 538 0 0
1279      -641957 539 0 0
1283      -629845 540 0 0
1287      -617733 541 0 0
1291      -605620 542 0 0
1295      -593508 543 0 0
1299      -581395 544 0 0
1303      -569283 545 0 0
1307      -557171 546 0 0
1311      -545058 547 0 0
1315      -532946 548 0 0
1319      -520833 549 0 0
1323      -508721 550 0 0
1327      -496609 551 0 0
1331      -484496 552 0 0
1335      -472384 553 0 0
1339      -460271 554 0 0
1343      -448159 555 0 0
1347      -436047 556 0 0
1351      -423934 557 0 0
1355      -411822 558 0 0
1359      -399709 559 0 0
1363      -387597 560 0 0
1367      -375484 561 0 0
1371      -363372 562 0 0
1375      -351260 563 0 0
1379      -339936 564 0 0
1383      -339936 565 0 0
1387      -339936 566 0 0
1391      -339936 567 0 0
1395      -339936 568 0 0
1399      -339936 569 0 0
1403      -339936 570 0 0
1407      -339936 571 0 0
1411      -339936 572 0 0
1415      -339936 573 0 0
1419      -339936 574 0 0
1423      -339936 575 0 0
1427      -339936 576 0 0
1431      -339936 577 0 0
1435      -339936 578 0 0
1439      -339936 579 0 0
1443      -339936 580 0 0
1447      -339936 581 0 0
1451      -339936 582 0 0
1455      -339936 583 0 0
1459      -339936 584 0 0
1463      -339936 585 0 0
1467      -339936 586 0 0
1471      -339936 587 0 0
1475      -339936 588 0 0
1479      -339936 589 0 0
1483      -339936 590 0 0
1487      -339936 591 0 0
1491       339936 592 0 0
1495       339936 593 0 0
1499       339936 594 0 0
1503       339936 595 0 0
1507       339936 596 0 0
1511       339936 597 0 0
1515       339936 598 0 0
1519       339936 599 0 0
1523       339936 600 0 0
1527       339936 601 0 0
1531       339936 602 0 0
1535       339936 603 0 0
1539       339936 604 0 0
1543       339936 605 0 0
1547       339936 606 0 0
1551       339936 607 0 0
1555       339936 608 0 0
1559       339936 609 0 0
1563       339936 610 0 0
1567       339936 611 0 0
1571       339936 612 0 0
1575       339936 613 0 0
1579       339936 614 0 0
1583       339936 615 0 0
1587       339936 616 0 0
1591       339936 617 0 0
1595       339936 618 0 0
1599       339936 619 0 0
1603       339936 620 0 0
1607       351260 621 0 0
1611       363372 622 0 0
1615       375484 623 0 0
1619       387597 624 0 0
1623       399709 625 0 0
1627       411822 626 0 0
1631       423934 627 0 0
1635       436047 628 0 0
1639       448159 629 0 0
1643       460271 630 0 0
1647       472384 631 0 0
1651       484496 632 0 0
1655       496609 633 0 0
1659       508721 634 0 0
1663       520833 635 0 0
1667       532946 636 0 0
1671       545058 637 0 0
1675       557171 638 0 0
1679       569283 639 0 0
1683       581395 640 0 0
1687       593508 641 0 0
1691       605620 642 0 0
1695       617733 643 0 0
1699       629845 644 0 0
1703       641957 645 0 0
1707       654070 646 0 0
1711       666182 647 0 0
1715       678295 648 0 0
1719       690407 649 0 0
1723       702519 650 0 0
1727       714632 651 0 0
1731       726744 652 0 0
1735       738857 653 0 0
1739       750969 654 0 0
1743       763081 655 0 0
1747       775194 656 0 0
1751       787306 657 0 0
1755       799419 658 0 0
1759       811531 659 0 0
1763       823643 660 0 0
1767       835756 661 0 0
1771       847868 662 0 0
1775       859981 663 0 0
1779       872093 664 0 0
1783       884205 665 0 0
1787       896318 666 0 0
1791       908430 667 0 0
1795       920543 668 0 0
1799       932655 669 0 0
1803       944767 670 0 0
1807       956880 671 0 0
1811       968992 672 0 0
1815       981105 673 0 0
1819       993217 674 0 0
1823  1.00533e+06 675 0 0
1827  1.01744e+06 676 0 0
1831  1.02955e+06 677 0 0
1835  1.04167e+06 678 0 0
1839  1.05378e+06 679 0 0
1843  1.06589e+06 680 0 0
1847    1.078e+06 681 0 0
1851  1.09012e+06 682 0 0
1855  1.10223e+06 683 0 0
1859  1.11434e+06 684 0 0
1863  1.12645e+06 685 0 0
1867  1.13857e+06 686 0 0
1871  1.15068e+06 687 0 0
1875  1.16279e+06 688 0 0
1879   1.1749e+06 689 0 0
1880 -1.21978e+06 690 691 0
1881  2.41582e+06 692 693 0

# Format of trapezoid gradients:
# id amplitude rise flat fall delay
# ..      Hz/m   us   us   us    us
[TRAP]
 3 -1.07503e+06 310  220 310   0
 4       313059  90 1730  90   0
 5 -1.04436e+06 300  240 300   0
 6       309865  90 1730  90   0
 7 -1.03359e+06 300  240 300   0
 8       306670  90 1730  90   0
 9 -1.00423e+06 290  260 290   0
10       303476  90 1730  90   0
11      -975914 280  280 280   0
12       300281  90 1730  90   0
13      -965532 280  280 280   0
14       297087  90 1730  90   0
15      -938392 270  300 270   0
16       293892  90 1730  90   0
17      -928193 270  300 270   0
18       290698  90 1730  90   0
19      -902165 260  320 260   0
20       287503  90 1730  90   0
21      -892141 260  320 260   0
22       284309  90 1730  90   0
23      -867166 250  340 250   0
24       281114  90 1730  90   0
25      -857312 250  340 250   0
26       276401  80 1750  80   0
27      -833333 240  360 240   0
28       273224  80 1750  80   0
29      -823643 240  360 240   0
30       270047  80 1750  80   0
31      -800610 230  380 230   0
32       266870  80 1750  80   0
33      -791079 230  380 230   0
34       263693  80 1750  80   0
35      -781548 230  380 230   0
36       260516  80 1750  80   0
37      -759565 220  400 220   0
38       257339  80 1750  80   0
39      -750188 220  400 220   0
40       254162  80 1750  80   0
41      -729051 210  420 210   0
42       250985  80 1750  80   0
43      -719823 210  420 210   0
44       247808  80 1750  80   0
45      -710594 210  420 210   0
46       243301  70 1770  70   0
47      -690407 200  440 200   0
48       240142  70 1770  70   0
49      -681323 200  440 200   0
50       236982  70 1770  70   0
51      -661896 190  460 190   0
52       233822  70 1770  70   0
53      -652952 190  460 190   0
54       230662  70 1770  70   0
55      -644007 190  460 190   0
56       227503  70 1770  70   0
57      -625440 180  480 180   0
58       224343  70 1770  70   0
59      -616631 180  480 180   0
60       221183  70 1770  70   0
61      -607822 180  480 180   0
62       218023  70 1770  70   0
63      -590073 170  500 170   0
64       214863  70 1770  70   0
65      -581395 170  500 170   0
66       211704  70 1770  70   0
67      -572718 170  500 170   0
68       207417  60 1790  60   0
69      -555746 160  520 160   0
70       204274  60 1790  60   0
71      -547196 160  520 160   0
72       201131  60 1790  60   0
73      -538646 160  520 160   0
74       197989  60 1790  60   0
75      -522413 150  540 150   0
76       194846  60 1790  60   0
77      -513987 150  540 150   0
78       191703  60 1790  60   0
79      -505561 150  540 150   0
80       188561  60 1790  60   0
81      -497135 150  540 150   0
82       185418  60 1790  60   0
83      -481728 140  560 140   0
84       182275  60 1790  60   0
85      -473422 140  560 140   0
86       179133  60 1790  60   0
87      -465116 140  560 140   0
88       175990  60 1790  60   0
89      -450377 130  580 130   0
90       171918  50 1810  50   0
91      -442188 130  580 130   0
92       168792  50 1810  50   0
93      -433999 130  580 130   0
94       165666  50 1810  50   0
95      -425811 130  580 130   0
96       162541  50 1810  50   0
97      -411822 120  600 120   0
98       159415  50 1810  50   0
99      -403747 120  600 120   0
100       156289  50 1810  50   0
101      -395672 120  600 120   0
102       153163  50 1810  50   0
103      -382287 110  620 110   0
104       150038  50 1810  50   0
