# Pulseq sequence file
# Created by MATLAB mr toolbox

[VERSION]
major 1
minor 4
revision 1

[DEFINITIONS]
AdcRasterTime 1e-07 
BlockDurationRaster 1e-05 
FOV 0.192 0.256 0.256 
FlipAngle 7 
GradientRasterTime 1e-05 
NParts 5 
Nacs 32 
Name gre_witness_merged_calib_192x256x256_Nxos1024_Ncalib72x1_Nacs32_Ndummy300_Nsettle10_os4_amp8_cycles10_SAG_prisma 
Ncalib1 72 
Ncalib2 1 
Ndummy 300 
NsettlePerPart 10 
Nx 192 
Nx_os 1024 
Ny 256 
Nz 256 
OrientationMapping SAG 
Part0_IsACS 0 
Part0_KyPhysStart0 92 
Part0_KyPhysStop0 163 
Part0_KzPhysStart0 96 
Part0_KzPhysStop0 96 
Part0_Mode nowave 
Part0_NLinLocal 72 
Part0_NParLocal 1 
Part0_Name nowave_kywide_kznarrow 
Part0_SetID 0 
Part1_IsACS 0 
Part1_KyPhysStart0 92 
Part1_KyPhysStop0 163 
Part1_KzPhysStart0 96 
Part1_KzPhysStop0 96 
Part1_Mode sin 
Part1_NLinLocal 72 
Part1_NParLocal 1 
Part1_Name sin_kywide_kznarrow 
Part1_SetID 1 
Part2_IsACS 0 
Part2_KyPhysStart0 128 
Part2_KyPhysStop0 128 
Part2_KzPhysStart0 60 
Part2_KzPhysStop0 131 
Part2_Mode nowave 
Part2_NLinLocal 1 
Part2_NParLocal 72 
Part2_Name nowave_kzwide_kynarrow 
Part2_SetID 2 
Part3_IsACS 0 
Part3_KyPhysStart0 128 
Part3_KyPhysStop0 128 
Part3_KzPhysStart0 60 
Part3_KzPhysStop0 131 
Part3_Mode cos 
Part3_NLinLocal 1 
Part3_NParLocal 72 
Part3_Name cos_kzwide_kynarrow 
Part3_SetID 3 
Part4_IsACS 1 
Part4_KyPhysStart0 112 
Part4_KyPhysStop0 143 
Part4_KzPhysStart0 80 
Part4_KzPhysStop0 111 
Part4_Mode nowave 
Part4_NLinLocal 32 
Part4_NParLocal 32 
Part4_Name acs_nowave_center 
Part4_SetID 4 
RadiofrequencyRasterTime 1e-06 
ReadoutOversamplingFactor 4 
ReceiverGainHigh 1 
SliceThickness 0.001 
TE 0.0035925 
TR 0.00759 
TotalDuration 12.61595 
ro_os 4 

# Format of blocks:
# NUM DUR RF  GX  GY  GZ  ADC  EXT
[BLOCKS]
   1 157   1   0   0   0  0  0
   2 602   0 401 1231 1656  0  0
   3 157   2 402 1232 1655  0  0
   4 602   0 405 1231 1656  0  0
   5 157   3 406 1232 1655  0  0
   6 602   0 409 1231 1656  0  0
   7 157   4 410 1232 1655  0  0
   8 602   0 413 1231 1656  0  0
   9 157   5 414 1232 1655  0  0
  10 602   0 417 1231 1656  0  0
  11 157   6 418 1232 1655  0  0
  12 602   0 421 1231 1656  0  0
  13 157   7 422 1232 1655  0  0
  14 602   0 425 1231 1656  0  0
  15 157   8 426 1232 1655  0  0
  16 602   0 429 1231 1656  0  0
  17 157   1 430 1232 1655  0  0
  18 602   0 433 1231 1656  0  0
  19 157   9 434 1232 1655  0  0
  20 602   0 437 1231 1656  0  0
  21 157  10 438 1232 1655  0  0
  22 602   0 441 1231 1656  0  0
  23 157  11 442 1232 1655  0  0
  24 602   0 445 1231 1656  0  0
  25 157   4 446 1232 1655  0  0
  26 602   0 321 1235 1656  0  0
  27 157  10 322 1236 1655  0  0
  28 602   0 325 1235 1656  0  0
  29 157  12 326 1236 1655  0  0
  30 602   0 329 1235 1656  0  0
  31 157  13 330 1236 1655  0  0
  32 602   0 333 1235 1656  0  0
  33 157   8 334 1236 1655  0  0
  34 602   0 337 1235 1656  0  0
  35 157   9 338 1236 1655  0  0
  36 602   0 341 1235 1656  0  0
  37 157  14 342 1236 1655  0  0
  38 602   0 345 1235 1656  0  0
  39 157   5 346 1236 1655  0  0
  40 602   0 349 1235 1656  0  0
  41 157  11 350 1236 1655  0  0
  42 602   0 353 1235 1656  0  0
  43 157   6 354 1236 1655  0  0
  44 602   0 357 1235 1656  0  0
  45 157   2 358 1236 1655  0  0
  46 602   0 361 1235 1656  0  0
  47 157  15 362 1236 1655  0  0
  48 602   0 365 1235 1656  0  0
  49 157  13 366 1236 1655  0  0
  50 602   0 369 1235 1656  0  0
  51 157   2 370 1236 1655  0  0
  52 602   0 373 1235 1656  0  0
  53 157  14 374 1236 1655  0  0
  54 602   0 377 1235 1656  0  0
  55 157  16 378 1236 1655  0  0
  56 602   0 381 1235 1656  0  0
  57 157   5 382 1236 1655  0  0
  58 602   0 385 1235 1656  0  0
  59 157   3 386 1236 1655  0  0
  60 602   0 389 1235 1656  0  0
  61 157  12 390 1236 1655  0  0
  62 602   0 393 1235 1656  0  0
  63 157   8 394 1236 1655  0  0
  64 602   0 397 1235 1656  0  0
  65 157  15 398 1236 1655  0  0
  66 602   0 401 1235 1656  0  0
  67 157   7 402 1236 1655  0  0
  68 602   0 405 1235 1656  0  0
  69 157  10 406 1236 1655  0  0
  70 602   0 409 1235 1656  0  0
  71 157  16 410 1236 1655  0  0
  72 602   0 413 1235 1656  0  0
  73 157  16 414 1236 1655  0  0
  74 602   0 417 1235 1656  0  0
  75 157  10 418 1236 1655  0  0
  76 602   0 421 1235 1656  0  0
  77 157   7 422 1236 1655  0  0
  78 602   0 425 1235 1656  0  0
  79 157  15 426 1236 1655  0  0
  80 602   0 429 1235 1656  0  0
  81 157   8 430 1236 1655  0  0
  82 602   0 433 1235 1656  0  0
  83 157  12 434 1236 1655  0  0
  84 602   0 437 1235 1656  0  0
  85 157   3 438 1236 1655  0  0
  86 602   0 441 1235 1656  0  0
  87 157   5 442 1236 1655  0  0
  88 602   0 445 1235 1656  0  0
  89 157  16 446 1236 1655  0  0
  90 602   0 321 409 1656  0  0
  91 157  14 322 410 1655  0  0
  92 602   0 325 409 1656  0  0
  93 157   2 326 410 1655  0  0
  94 602   0 329 409 1656  0  0
  95 157  13 330 410 1655  0  0
  96 602   0 333 409 1656  0  0
  97 157  15 334 410 1655  0  0
  98 602   0 337 409 1656  0  0
  99 157   2 338 410 1655  0  0
 100 602   0 341 409 1656  0  0
 101 157   6 342 410 1655  0  0
 102 602   0 345 409 1656  0  0
 103 157  11 346 410 1655  0  0
 104 602   0 349 409 1656  0  0
 105 157   5 350 410 1655  0  0
 106 602   0 353 409 1656  0  0
 107 157  14 354 410 1655  0  0
 108 602   0 357 409 1656  0  0
 109 157   9 358 410 1655  0  0
 110 602   0 361 409 1656  0  0
 111 157   8 362 410 1655  0  0
 112 602   0 365 409 1656  0  0
 113 157  13 366 410 1655  0  0
 114 602   0 369 409 1656  0  0
 115 157  12 370 410 1655  0  0
 116 602   0 373 409 1656  0  0
 117 157  10 374 410 1655  0  0
 118 602   0 377 409 1656  0  0
 119 157   4 378 410 1655  0  0
 120 602   0 381 409 1656  0  0
 121 157  11 382 410 1655  0  0
 122 602   0 385 409 1656  0  0
 123 157  10 386 410 1655  0  0
 124 602   0 389 409 1656  0  0
 125 157   9 390 410 1655  0  0
 126 602   0 393 409 1656  0  0
 127 157   1 394 410 1655  0  0
 128 602   0 397 409 1656  0  0
 129 157   8 398 410 1655  0  0
 130 602   0 401 409 1656  0  0
 131 157   7 402 410 1655  0  0
 132 602   0 405 409 1656  0  0
 133 157   6 406 410 1655  0  0
 134 602   0 409 409 1656  0  0
 135 157   5 410 410 1655  0  0
 136 602   0 413 409 1656  0  0
 137 157   4 414 410 1655  0  0
 138 602   0 417 409 1656  0  0
 139 157   3 418 410 1655  0  0
 140 602   0 421 409 1656  0  0
 141 157   2 422 410 1655  0  0
 142 602   0 425 409 1656  0  0
 143 157   1 426 410 1655  0  0
 144 602   0 429 409 1656  0  0
 145 157   1 430 410 1655  0  0
 146 602   0 433 409 1656  0  0
 147 157   2 434 410 1655  0  0
 148 602   0 437 409 1656  0  0
 149 157   3 438 410 1655  0  0
 150 602   0 441 409 1656  0  0
 151 157   4 442 410 1655  0  0
 152 602   0 445 409 1656  0  0
 153 157   5 446 410 1655  0  0
 154 602   0 321 1241 1656  0  0
 155 157   6 322 1242 1655  0  0
 156 602   0 325 1241 1656  0  0
 157 157   7 326 1242 1655  0  0
 158 602   0 329 1241 1656  0  0
 159 157   8 330 1242 1655  0  0
 160 602   0 333 1241 1656  0  0
 161 157   1 334 1242 1655  0  0
 162 602   0 337 1241 1656  0  0
 163 157   9 338 1242 1655  0  0
 164 602   0 341 1241 1656  0  0
 165 157  10 342 1242 1655  0  0
 166 602   0 345 1241 1656  0  0
 167 157  11 346 1242 1655  0  0
 168 602   0 349 1241 1656  0  0
 169 157   4 350 1242 1655  0  0
 170 602   0 353 1241 1656  0  0
 171 157  10 354 1242 1655  0  0
 172 602   0 357 1241 1656  0  0
 173 157  12 358 1242 1655  0  0
 174 602   0 361 1241 1656  0  0
 175 157  13 362 1242 1655  0  0
 176 602   0 365 1241 1656  0  0
 177 157   8 366 1242 1655  0  0
 178 602   0 369 1241 1656  0  0
 179 157   9 370 1242 1655  0  0
 180 602   0 373 1241 1656  0  0
 181 157  14 374 1242 1655  0  0
 182 602   0 377 1241 1656  0  0
 183 157   5 378 1242 1655  0  0
 184 602   0 381 1241 1656  0  0
 185 157  11 382 1242 1655  0  0
 186 602   0 385 1241 1656  0  0
 187 157   6 386 1242 1655  0  0
 188 602   0 389 1241 1656  0  0
 189 157   2 390 1242 1655  0  0
 190 602   0 393 1241 1656  0  0
 191 157  15 394 1242 1655  0  0
 192 602   0 397 1241 1656  0  0
 193 157  13 398 1242 1655  0  0
 194 602   0 401 1241 1656  0  0
 195 157   2 402 1242 1655  0  0
 196 602   0 405 1241 1656  0  0
 197 157  14 406 1242 1655  0  0
 198 602   0 409 1241 1656  0  0
 199 157  16 410 1242 1655  0  0
 200 602   0 413 1241 1656  0  0
 201 157   5 414 1242 1655  0  0
 202 602   0 417 1241 1656  0  0
 203 157   3 418 1242 1655  0  0
 204 602   0 421 1241 1656  0  0
 205 157  12 422 1242 1655  0  0
 206 602   0 425 1241 1656  0  0
 207 157   8 426 1242 1655  0  0
 208 602   0 429 1241 1656  0  0
 209 157  15 430 1242 1655  0  0
 210 602   0 433 1241 1656  0  0
 211 157   7 434 1242 1655  0  0
 212 602   0 437 1241 1656  0  0
 213 157  10 438 1242 1655  0  0
 214 602   0 441 1241 1656  0  0
 215 157  16 442 1242 1655  0  0
 216 602   0 445 1241 1656  0  0
 217 157  16 446 1242 1655  0  0
 218 602   0 321 1245 1656  0  0
 219 157  10 322 1246 1655  0  0
 220 602   0 325 1245 1656  0  0
 221 157   7 326 1246 1655  0  0
 222 602   0 329 1245 1656  0  0
 223 157  15 330 1246 1655  0  0
 224 602   0 333 1245 1656  0  0
 225 157   8 334 1246 1655  0  0
 226 602   0 337 1245 1656  0  0
 227 157  12 338 1246 1655  0  0
 228 602   0 341 1245 1656  0  0
 229 157   3 342 1246 1655  0  0
 230 602   0 345 1245 1656  0  0
 231 157   5 346 1246 1655  0  0
 232 602   0 349 1245 1656  0  0
 233 157  16 350 1246 1655  0  0
 234 602   0 353 1245 1656  0  0
 235 157  14 354 1246 1655  0  0
 236 602   0 357 1245 1656  0  0
 237 157   2 358 1246 1655  0  0
 238 602   0 361 1245 1656  0  0
 239 157  13 362 1246 1655  0  0
 240 602   0 365 1245 1656  0  0
 241 157  15 366 1246 1655  0  0
 242 602   0 369 1245 1656  0  0
 243 157   2 370 1246 1655  0  0
 244 602   0 373 1245 1656  0  0
 245 157   6 374 1246 1655  0  0
 246 602   0 377 1245 1656  0  0
 247 157  11 378 1246 1655  0  0
 248 602   0 381 1245 1656  0  0
 249 157   5 382 1246 1655  0  0
 250 602   0 385 1245 1656  0  0
 251 157  14 386 1246 1655  0  0
[RF]
1      194.444 834 835 836 1370 0 0
2      194.444 834 835 836 1370 0 0.872665
3      194.444 834 835 836 1370 0 2.61799
4      194.444 834 835 836 1370 0 5.23599
5      194.444 834 835 836 1370 0 2.44346
6      194.444 834 835 836 1370 0 0.523599
7      194.444 834 835 836 1370 0 5.75959
8      194.444 834 835 836 1370 0 5.58505
9      194.444 834 835 836 1370 0 1.5708
10      194.444 834 835 836 1370 0 4.01426
11      194.444 834 835 836 1370 0 1.0472
12      194.444 834 835 836 1370 0 3.66519
13      194.444 834 835 836 1370 0 4.18879
14      194.444 834 835 836 1370 0 4.71239
15      194.444 834 835 836 1370 0 2.0944
16      194.444 834 835 836 1370 0 3.14159

# Format of arbitrary gradients:
#   time_shape_id of 0 means default timing (stepping with grad_raster starting at 1/2 of grad_raster)
# id amplitude amp_shape_id time_shape_id delay
# ..      Hz/m       ..         ..          us
[GRADIENTS]
3       957039 1 0 0
4  1.21678e+06 2 3 0
7       945336 4 0 0
8  1.21858e+06 5 6 0
11       933634 7 0 0
12  1.22043e+06 8 9 0
15       921931 10 0 0
16  1.22231e+06 11 12 0
19       910229 13 0 0
20  1.21134e+06 14 12 0
23       898526 15 0 0
24  1.18433e+06 16 17 0
27       886823 18 0 0
28  1.18583e+06 19 20 0
31       875121 21 0 0
32  1.18736e+06 22 23 0
35       863418 24 0 0
36  1.18893e+06 25 26 0
39       851715 27 0 0
40  1.16158e+06 28 29 0
43       840013 30 0 0
44  1.16287e+06 31 32 0
47       828310 33 0 0
48  1.15166e+06 34 32 0
51       816608 35 0 0
52  1.15286e+06 36 37 0
55       804905 38 0 0
56  1.15408e+06 39 40 0
59       793202 41 0 0
60  1.12651e+06 42 43 0
63       781500 44 0 0
64  1.12745e+06 45 46 0
67       769797 47 0 0
68   1.1284e+06 48 49 0
71       758095 50 0 0
72  1.12937e+06 51 52 0
75       746392 53 0 0
76  1.10147e+06 54 55 0
79       734689 56 0 0
80  1.10214e+06 57 58 0
83       722987 59 0 0
84  1.10282e+06 60 61 0
87       711284 62 0 0
88  1.10353e+06 63 64 0
91       699582 65 0 0
92  1.07528e+06 66 67 0
95       687879 68 0 0
96  1.06344e+06 69 67 0
99       676176 70 0 0
100  1.06369e+06 71 72 0
103       664474 73 0 0
104  1.06395e+06 74 75 0
107       652771 76 0 0
108  1.06421e+06 77 78 0
111       641069 79 0 0
112  1.03576e+06 80 81 0
115       629366 82 0 0
116  1.03569e+06 83 84 0
119       617663 85 0 0
120  1.03562e+06 86 87 0
123       605961 88 0 0
124  1.03555e+06 89 90 0
127       594258 91 0 0
128  1.00677e+06 92 93 0
131       582555 94 0 0
132  1.00635e+06 95 96 0
135       570853 97 0 0
136  1.00592e+06 98 99 0
139       559150 100 0 0
140  1.00547e+06 101 102 0
143       547448 103 0 0
144       976356 104 105 0
147       535745 106 0 0
148       975549 107 108 0
151       524042 109 0 0
152       987061 110 111 0
155       512340 112 0 0
156       957444 113 114 0
159       500637 115 0 0
160       956378 116 117 0
163       488935 118 0 0
164       955285 119 120 0
167       477232 121 0 0
168       954163 122 123 0
171       465529 124 0 0
172       924209 125 126 0
175       453827 127 0 0
176       922683 128 129 0
179       442124 130 0 0
180       921118 131 132 0
183       430422 133 0 0
184       919510 134 135 0
187       418719 136 0 0
188       889224 137 138 0
191       407016 139 0 0
192       887191 140 141 0
195       395314 142 0 0
196       897228 143 144 0
199       383611 145 0 0
200       866424 146 147 0
203       371909 148 0 0
204       864024 149 150 0
207       360206 151 0 0
208       861556 152 153 0
211       348503 154 0 0
212       859020 155 156 0
215       340608 157 0 0
216       839551 158 159 0
219       340608 160 0 0
220       836664 161 162 0
223       340608 163 0 0
224       833692 164 165 0
227       340608 166 0 0
228       802036 167 168 0
231       340608 169 0 0
232       798563 170 171 0
235       340608 172 0 0
236       806853 173 174 0
239       340608 175 0 0
240       774660 176 177 0
243       340608 178 0 0
244       770675 179 180 0
247       340608 181 0 0
248       778363 182 183 0
251       340608 184 0 0
252       745626 185 186 0
255       340608 187 0 0
256       741071 188 189 0
259       340608 190 0 0
260       748063 191 192 0
263       340608 193 0 0
264       714776 194 195 0
267       340608 196 0 0
268       721033 197 198 0
271       340608 199 0 0
272       715776 200 201 0
275       340608 202 0 0
276       681937 203 204 0
279       340608 205 0 0
280       687307 206 207 0
283       340608 208 0 0
284       681301 209 210 0
287       340608 211 0 0
288       657872 212 213 0
291       340608 214 0 0
292       651255 215 216 0
295       340608 217 0 0
296       627423 218 219 0
299       340608 220 0 0
300       631230 221 222 0
303       340608 223 0 0
304       623767 224 225 0
307       340608 226 0 0
308       598635 227 228 0
311       340608 229 0 0
312       601571 230 231 0
315       340608 232 0 0
316       564833 233 234 0
319       340608 235 0 0
320       566525 236 237 0
323       340608 238 0 0
324       539943 239 240 0
327       340608 241 0 0
328       540707 242 243 0
331      -340608 244 0 0
332       513062 245 246 0
335      -340608 247 0 0
336       512738 248 249 0
339      -340608 250 0 0
340       483941 251 252 0
343      -340608 253 0 0
344       482337 254 255 0
347      -340608 256 0 0
348       452287 257 258 0
351      -340608 259 0 0
352       449171 260 261 0
355      -340608 262 0 0
356       417756 263 264 0
359      -340608 265 0 0
360       422917 266 267 0
363      -340608 268 0 0
364       389203 269 270 0
367      -340608 271 0 0
368       364376 272 273 0
371      -340608 274 0 0
372       365767 275 276 0
375      -340608 277 0 0
376       340608 278 279 0
379      -340608 280 0 0
380       340608 281 282 0
383      -340608 283 0 0
384       340608 284 285 0
387      -340608 286 0 0
388       340608 287 288 0
391      -340608 289 0 0
392       340608 290 291 0
395      -340608 292 0 0
396       340608 293 294 0
399      -340608 295 0 0
400       340608 296 297 0
403      -340608 298 0 0
404       340608 299 300 0
407      -340608 301 0 0
408       340608 302 303 0
411      -340608 304 0 0
412       340608 305 306 0
415      -340608 307 0 0
416       340608 308 309 0
419      -340608 310 0 0
420       382461 311 312 0
423      -340608 313 0 0
424       341068 314 315 0
427      -340608 316 0 0
428       377942 317 318 0
431      -340608 319 0 0
432       411128 320 321 0
435      -340608 322 0 0
436       441154 323 324 0
439      -340608 325 0 0
440       468450 326 327 0
443      -340608 328 0 0
444       493372 329 330 0
447      -345821 331 0 0
448       495569 332 333 0
451      -357524 334 0 0
452       523611 335 336 0
455      -369226 337 0 0
456       530436 338 339 0
459      -380929 340 0 0
460       529750 341 342 0
463      -392632 343 0 0
464       529156 344 345 0
467      -404334 346 0 0
468       559832 347 348 0
471      -416037 349 0 0
472       557316 350 351 0
475      -427739 352 0 0
476       555105 353 354 0
479      -439442 355 0 0
480       559398 356 357 0
483      -451145 358 0 0
484       618236 359 360 0
487      -462847 361 0 0
488       639480 362 363 0
491      -474550 364 0 0
492       641291 365 366 0
495      -486252 367 0 0
496       617448 368 369 0
499      -497955 370 0 0
500       644612 371 372 0
503      -509658 373 0 0
504       673754 374 375 0
507      -521360 376 0 0
508       674473 377 378 0
511      -533063 379 0 0
512       675155 380 381 0
515      -544765 382 0 0
516       675802 383 384 0
519      -556468 385 0 0
520       728573 386 387 0
523      -568171 388 0 0
524       727885 389 390 0
527      -579873 391 0 0
528       727231 392 393 0
531      -591576 394 0 0
532       760945 395 396 0
535      -603279 397 0 0
536       759519 398 399 0
539      -614981 400 0 0
540       758160 401 402 0
543      -626684 403 0 0
544       790306 404 405 0
547      -638386 406 0 0
548       788277 407 408 0
551      -650089 409 0 0
552       786339 410 411 0
555      -661792 412 0 0
556       817056 413 414 0
559      -673494 415 0 0
560       814535 416 417 0
563      -685197 418 0 0
564       795201 419 420 0
567      -696899 421 0 0
568       823999 422 423 0
571      -708602 424 0 0
572       821490 425 426 0
575      -720305 427 0 0
576       849699 428 429 0
579      -732007 430 0 0
580       846726 431 432 0
583      -743710 433 0 0
584       853935 434 435 0
587      -755412 436 0 0
588       881581 437 438 0
591      -767115 439 0 0
592       878041 440 441 0
595      -778818 442 0 0
596       905145 443 444 0
599      -790520 445 0 0
600       884216 446 447 0
603      -802223 448 0 0
604       910296 449 450 0
607      -813925 451 0 0
608       906422 452 453 0
611      -825628 454 0 0
612       943178 455 456 0
615      -837331 457 0 0
616       938694 458 459 0
619      -849033 460 0 0
620       934374 461 462 0
623      -860736 463 0 0
624       942372 464 465 0
627      -872439 466 0 0
628       938138 467 468 0
631      -884141 469 0 0
632       973492 470 471 0
635      -895844 472 0 0
636       968713 473 474 0
639      -907546 475 0 0
640       992963 476 477 0
643      -919249 478 0 0
644       971186 479 480 0
647      -930952 481 0 0
648       994614 482 483 0
651      -942654 484 0 0
652  1.00072e+06 485 486 0
655      -954357 487 0 0
656  1.02415e+06 488 489 0
659      -966059 490 0 0
660  1.00207e+06 491 492 0
663      -977762 493 0 0
664  1.02473e+06 494 495 0
667      -989465 496 0 0
668  1.03063e+06 497 498 0
671 -1.00117e+06 499 0 0
672   1.0533e+06 500 501 0
675 -1.01287e+06 502 0 0
676  1.03099e+06 503 504 0
679 -1.02457e+06 505 0 0
680  1.05293e+06 506 507 0
683 -1.03628e+06 508 0 0
684  1.05865e+06 509 510 0
687 -1.04798e+06 511 0 0
688  1.08059e+06 512 513 0
691 -1.05968e+06 514 0 0
692  1.05812e+06 515 516 0
695 -1.07138e+06 517 0 0
696  1.09093e+06 518 519 0
699 -1.08309e+06 520 0 0
700  1.08494e+06 521 522 0
703 -1.09479e+06 523 0 0
704  1.08944e+06 524 525 0
707 -1.10649e+06 526 0 0
708  1.08364e+06 527 528 0
711 -1.11819e+06 529 0 0
712  1.11585e+06 530 531 0
715  -1.1299e+06 532 0 0
716  1.11982e+06 533 534 0
719  -1.1416e+06 535 0 0
720  1.11366e+06 536 537 0
723  -1.1533e+06 538 0 0
724  1.14583e+06 539 540 0
727   -1.165e+06 541 0 0
728  1.13929e+06 542 543 0
731 -1.17671e+06 544 0 0
732  1.14281e+06 545 546 0
735 -1.18841e+06 547 0 0
736  1.14804e+06 548 549 0
739 -1.20011e+06 550 0 0
740  1.16807e+06 551 552 0
743 -1.21181e+06 553 0 0
744  1.14504e+06 554 555 0
747 -1.22352e+06 556 0 0
748  1.17628e+06 557 558 0
751 -1.23522e+06 559 0 0
752  1.17918e+06 560 561 0
755 -1.24692e+06 562 0 0
756  1.17254e+06 563 564 0
759 -1.25862e+06 565 0 0
760  1.20373e+06 566 567 0
763 -1.27033e+06 568 0 0
764  1.19675e+06 569 570 0
767 -1.28203e+06 571 0 0
768  1.19929e+06 572 573 0
769       980392 574 0 0
772       972733 575 0 0
775       965074 576 0 0
778       957414 577 0 0
779       949755 578 0 0
782       942096 579 0 0
785       934436 580 0 0
789       926777 581 0 0
791       919118 582 0 0
795       911458 583 0 0
799       903799 584 0 0
803       896140 585 0 0
805       888480 586 0 0
809       880821 587 0 0
813       873162 588 0 0
817       865502 589 0 0
819       857843 590 0 0
823       850184 591 0 0
827       842525 592 0 0
831       834865 593 0 0
833       827206 594 0 0
837       819547 595 0 0
841       811887 596 0 0
845       804228 597 0 0
847       796569 598 0 0
851       788909 599 0 0
855       781250 600 0 0
859       773591 601 0 0
861       765931 602 0 0
865       758272 603 0 0
869       750613 604 0 0
873       742953 605 0 0
875       735294 606 0 0
879       727635 607 0 0
883       719975 608 0 0
887       712316 609 0 0
889       704657 610 0 0
893       696998 611 0 0
897       689338 612 0 0
901       681679 613 0 0
903       674020 614 0 0
907       666360 615 0 0
911       658701 616 0 0
915       651042 617 0 0
917       643382 618 0 0
921       635723 619 0 0
925       628064 620 0 0
929       620404 621 0 0
931       612745 622 0 0
935       605086 623 0 0
939       597426 624 0 0
943       589767 625 0 0
945       582108 626 0 0
949       574449 627 0 0
953       566789 628 0 0
957       559130 629 0 0
959       551471 630 0 0
963       543811 631 0 0
967       536152 632 0 0
971       528493 633 0 0
973       520833 634 0 0
977       513174 635 0 0
981       505515 636 0 0
985       497855 637 0 0
987       490196 638 0 0
991       482537 639 0 0
995       474877 640 0 0
999       467218 641 0 0
1001       459559 642 0 0
1005       451900 643 0 0
1009       444240 644 0 0
1013       436581 645 0 0
1015       428922 646 0 0
1019       421262 647 0 0
1023       413603 648 0 0
1027       405944 649 0 0
1029       398284 650 0 0
1033       390625 651 0 0
1037       382966 652 0 0
1041       375306 653 0 0
1043       367647 654 0 0
1047       359988 655 0 0
1051       352328 656 0 0
1055       344669 657 0 0
1057       340608 658 0 0
1061       340608 659 0 0
1065       340608 660 0 0
1069       340608 661 0 0
1071       340608 662 0 0
1075       340608 663 0 0
1079       340608 664 0 0
1083       340608 665 0 0
1085       340608 666 0 0
1089       340608 667 0 0
1093       340608 668 0 0
1097       340608 669 0 0
1099       340608 670 0 0
1103       340608 671 0 0
1107       340608 672 0 0
1111       340608 673 0 0
1113       340608 674 0 0
1117       340608 675 0 0
1121       340608 676 0 0
1125       340608 677 0 0
1127       340608 678 0 0
1131       340608 679 0 0
1135       340608 680 0 0
1139       340608 681 0 0
1141       340608 682 0 0
1145       340608 683 0 0
1149       340608 684 0 0
1153       340608 685 0 0
1155       340608 686 0 0
1159       340608 687 0 0
1163       340608 688 0 0
1167       340608 689 0 0
1169       340608 690 0 0
1173       340608 691 0 0
1177       340608 692 0 0
1181       340608 693 0 0
1183       340608 694 0 0
1187       340608 695 0 0
1191       340608 696 0 0
1195       340608 697 0 0
1197       340608 698 0 0
1201       340608 699 0 0
1205       340608 700 0 0
1209       340608 701 0 0
1211       340608 702 0 0
1215      -340608 703 0 0
1219      -340608 704 0 0
1223      -340608 705 0 0
1225      -340608 706 0 0
1229      -340608 707 0 0
1233      -340608 708 0 0
1237      -340608 709 0 0
1239      -340608 710 0 0
1243      -340608 711 0 0
1247      -340608 712 0 0
1251      -340608 713 0 0
1253      -340608 714 0 0
1257      -340608 715 0 0
1261      -340608 716 0 0
1265      -340608 717 0 0
1267      -340608 718 0 0
1271      -340608 719 0 0
1275      -340608 720 0 0
1279      -340608 721 0 0
1281      -340608 722 0 0
1285      -340608 723 0 0
1289      -340608 724 0 0
1293      -340608 725 0 0
1295      -340608 726 0 0
1299      -340608 727 0 0
1303      -340608 728 0 0
1307      -340608 729 0 0
1309      -340608 730 0 0
1313      -340608 731 0 0
1317      -340608 732 0 0
1321      -340608 733 0 0
1323      -340608 734 0 0
1327      -340608 735 0 0
1331      -340608 736 0 0
1335      -340608 737 0 0
1337      -340608 738 0 0
1341      -340608 739 0 0
1345      -340608 740 0 0
1349      -340608 741 0 0
1351      -340608 742 0 0
1355      -340608 743 0 0
1359      -340608 744 0 0
1363      -340608 745 0 0
1365      -340608 746 0 0
1369      -344669 747 0 0
1373      -352328 748 0 0
1377      -359988 749 0 0
1379      -367647 750 0 0
1383      -375306 751 0 0
1387      -382966 752 0 0
1391      -390625 753 0 0
1393      -398284 754 0 0
1397      -405944 755 0 0
1401      -413603 756 0 0
1405      -421262 757 0 0
1407      -428922 758 0 0
1411      -436581 759 0 0
1415      -444240 760 0 0
1419      -451900 761 0 0
1421      -459559 762 0 0
1425      -467218 763 0 0
1429      -474877 764 0 0
1433      -482537 765 0 0
1435      -490196 766 0 0
1439      -497855 767 0 0
1443      -505515 768 0 0
1447      -513174 769 0 0
1449      -520833 770 0 0
1453      -528493 771 0 0
1457      -536152 772 0 0
1461      -543811 773 0 0
1463      -551471 774 0 0
1467      -559130 775 0 0
1471      -566789 776 0 0
1475      -574449 777 0 0
1477      -582108 778 0 0
1481      -589767 779 0 0
1485      -597426 780 0 0
1489      -605086 781 0 0
1491      -612745 782 0 0
1495      -620404 783 0 0
1499      -628064 784 0 0
1503      -635723 785 0 0
1505      -643382 786 0 0
1509      -651042 787 0 0
1513      -658701 788 0 0
1517      -666360 789 0 0
1519      -674020 790 0 0
1523      -681679 791 0 0
1527      -689338 792 0 0
1531      -696998 793 0 0
1533      -704657 794 0 0
1537      -712316 795 0 0
1541      -719975 796 0 0
1545      -727635 797 0 0
1547      -735294 798 0 0
1551      -742953 799 0 0
1555      -750613 800 0 0
1559      -758272 801 0 0
1561      -765931 802 0 0
1565      -773591 803 0 0
1569      -781250 804 0 0
1573      -788909 805 0 0
1575      -796569 806 0 0
1579      -804228 807 0 0
1583      -811887 808 0 0
1587      -819547 809 0 0
1589      -827206 810 0 0
1593      -834865 811 0 0
1597      -842525 812 0 0
1601      -850184 813 0 0
1603      -857843 814 0 0
1607      -865502 815 0 0
1611      -873162 816 0 0
1615      -880821 817 0 0
1617      -888480 818 0 0
1621      -896140 819 0 0
1625      -903799 820 0 0
1629      -911458 821 0 0
1631      -919118 822 0 0
1635      -926777 823 0 0
1639      -934436 824 0 0
1643      -942096 825 0 0
1645      -949755 826 0 0
1648      -957414 827 0 0
1651      -965074 828 0 0
1654      -972733 829 0 0
1655  2.08192e+06 830 831 0
1656 -1.00879e+06 832 833 0

# Format of trapezoid gradients:
# id amplitude rise flat fall delay
# ..      Hz/m   us   us   us    us
[TRAP]
 1       980392 330  180 330   0
 2 -1.21951e+06 410    0 410   0
 5       970180 330  180 330   0
 6 -1.20681e+06 410    0 410   0
 9       959967 330  180 330   0
10 -1.19411e+06 410    0 410   0
13       949755 330  180 330   0
14  -1.1814e+06 410    0 410   0
17       939542 330  180 330   0
18  -1.1687e+06 410    0 410   0
21       929330 330  180 330   0
22   -1.156e+06 410    0 410   0
25       919118 330  180 330   0
26 -1.14329e+06 410    0 410   0
29       908905 330  180 330   0
30 -1.13059e+06 410    0 410   0
33       898693 330  180 330   0
34 -1.11789e+06 410    0 410   0
37       888480 330  180 330   0
38 -1.10518e+06 410    0 410   0
41       878268 330  180 330   0
42 -1.09248e+06 410    0 410   0
45       868056 330  180 330   0
46 -1.07978e+06 410    0 410   0
49       857843 330  180 330   0
50 -1.06707e+06 410    0 410   0
53       847631 330  180 330   0
54 -1.05437e+06 410    0 410   0
57       837418 330  180 330   0
58 -1.04167e+06 410    0 410   0
61       827206 330  180 330   0
62 -1.02896e+06 410    0 410   0
65       816993 330  180 330   0
66 -1.01626e+06 410    0 410   0
69       806781 330  180 330   0
70 -1.00356e+06 410    0 410   0
73       796569 330  180 330   0
74      -990854 410    0 410   0
77       786356 330  180 330   0
78      -978150 410    0 410   0
81       776144 330  180 330   0
82      -965447 410    0 410   0
85       765931 330  180 330   0
86      -952744 410    0 410   0
89       755719 330  180 330   0
90      -940041 410    0 410   0
93       745507 330  180 330   0
94      -927337 410    0 410   0
97       735294 330  180 330   0
98      -914634 410    0 410   0
101       725082 330  180 330   0
102      -901931 410    0 410   0
105       714869 330  180 330   0
106      -889228 410    0 410   0
109       704657 330  180 330   0
110      -876524 410    0 410   0
113       694444 330  180 330   0
114      -863821 410    0 410   0
117       684232 330  180 330   0
118      -851118 410    0 410   0
121       674020 330  180 330   0
122      -838415 410    0 410   0
125       663807 330  180 330   0
126      -825711 410    0 410   0
129       653595 330  180 330   0
130      -813008 410    0 410   0
133       643382 330  180 330   0
134      -800305 410    0 410   0
137       633170 330  180 330   0
138      -787602 410    0 410   0
141       622958 330  180 330   0
142      -774898 410    0 410   0
145       612745 330  180 330   0
146      -762195 410    0 410   0
149       602533 330  180 330   0
