# Pulseq sequence file
# Created by MATLAB mr toolbox

[VERSION]
major 1
minor 5
revision 1

[DEFINITIONS]
AdcRasterTime 1e-07 
BlockDurationRaster 1e-05 
CalPart0_IsACS 0 
CalPart0_KyPhysStart0 74 
CalPart0_KyPhysStop0 145 
CalPart0_KzPhysStart0 86 
CalPart0_KzPhysStop0 86 
CalPart0_Mode nowave 
CalPart0_NLinLocal 72 
CalPart0_NParLocal 1 
CalPart0_Name nowave_kywide_kznarrow 
CalPart0_SetID 0 
CalPart1_IsACS 0 
CalPart1_KyPhysStart0 74 
CalPart1_KyPhysStop0 145 
CalPart1_KzPhysStart0 86 
CalPart1_KzPhysStop0 86 
CalPart1_Mode sin 
CalPart1_NLinLocal 72 
CalPart1_NParLocal 1 
CalPart1_Name sin_kywide_kznarrow 
CalPart1_SetID 1 
CalPart2_IsACS 0 
CalPart2_KyPhysStart0 110 
CalPart2_KyPhysStop0 110 
CalPart2_KzPhysStart0 50 
CalPart2_KzPhysStop0 121 
CalPart2_Mode nowave 
CalPart2_NLinLocal 1 
CalPart2_NParLocal 72 
CalPart2_Name nowave_kzwide_kynarrow 
CalPart2_SetID 2 
CalPart3_IsACS 0 
CalPart3_KyPhysStart0 110 
CalPart3_KyPhysStop0 110 
CalPart3_KzPhysStart0 50 
CalPart3_KzPhysStop0 121 
CalPart3_Mode cos 
CalPart3_NLinLocal 1 
CalPart3_NParLocal 72 
CalPart3_Name cos_kzwide_kynarrow 
CalPart3_SetID 3 
CalPart4_IsACS 1 
CalPart4_KyPhysStart0 94 
CalPart4_KyPhysStop0 125 
CalPart4_KzPhysStart0 70 
CalPart4_KzPhysStop0 101 
CalPart4_Mode nowave 
CalPart4_NLinLocal 32 
CalPart4_NParLocal 32 
CalPart4_Name acs_nowave_center 
CalPart4_SetID 4 
Calibration_ACSLocalStart0 0 
Calibration_ACSLocalStop0 31 
Calibration_ACSSetID 4 
Calibration_AllSetsInRefscan 1 
Calibration_NParts 5 
Calibration_Nacs 32 
Calibration_Ncalib1 72 
Calibration_Ncalib2 1 
Calibration_Ndummy 300 
Calibration_NsettlePerPart 10 
Calibration_RefscanADCs 1312 
Calibration_RefscanNLin 72 
Calibration_RefscanNPar 72 
Calibration_RefscanNSets 5 
Calibration_TE 0.0035925 
Calibration_TRinner 0.00759 
FOV 0.172 0.22 0.256 
FlipAngle 7 
GradientRasterTime 1e-05 
InnerPEAxis x 
MPRAGE_ETL_Blocks 67 
MPRAGE_ETL_CenterSlot0 96 
MPRAGE_ETL_DummySlots 308 
MPRAGE_ETL_Efficiency 0.977272727 
MPRAGE_ETL_FillerPerKy 4 
MPRAGE_ETL_Mode segmented 
MPRAGE_ETL_RealSlots 12556 
MPRAGE_ETL_SegLen 16 
MPRAGE_ETL_SegmentsPerBlock 12 
MPRAGE_ETL_SegmentsPerKy 11 
MPRAGE_ETL_Target 192 
MPRAGE_HasSeparateACS 0 
MPRAGE_ImageADCs 12556 
MPRAGE_PE1_ImgLines 172 
MPRAGE_PE1_R 1 
MPRAGE_PE2_ImgLines 73 
MPRAGE_PE2_R 3 
MPRAGE_TI 1.1 
MPRAGE_TRinner 0.00759 
MPRAGE_TRout 2.5 
MPRAGE_UseWaveCos 1 
MPRAGE_UseWaveSin 1 
Name mprage_3d_wave_FOV172x220x256_res1x1x1_ETL192_R1-1_R2-3_os4_amp8_cyc10_SAG_prisma 
Nx 172 
Nx_os 1024 
Ny 220 
Nz 256 
OrientationMapping SAG 
OuterPEAxis y 
PhaseResolution 1 
RadiofrequencyRasterTime 1e-06 
ReadoutAxis z 
ReadoutOversamplingFactor 4 
ReceiverGainHigh 1 
RequestedResolutionX_mm 1 
RequestedResolutionY_mm 1 
RequestedResolutionZ_mm 1 
ResolutionX_mm 1 
ResolutionY_mm 1 
ResolutionZ_mm 1 
SliceThickness 0.001 
TE 0.0035925 
TR 2.5 
TotalDuration 180.11595 
kSpaceCenterLine 110 
kSpaceCenterPartition 86 
ro_os 4 

# Format of blocks:
# NUM DUR RF  GX  GY  GZ  ADC  EXT
[BLOCKS]
    1 1044   2   0   0   0  0  0
    2 36473   0   0 1550   0  0  0
    3 157   1   0   0   0  0  0
    4 602   0 655 695 1552  0  0
    5 157   3 656 694 1551  0  0
    6 602   0 659 695 1552  0  0
    7 157   4 660 694 1551  0  0
    8 602   0 663 704 1552  1  6
    9 157   5 664 703 1551  0  0
   10 602   0   3 695 1552  2 12
   11 157   6   4 694 1551  0  0
   12 602   0   7 695 1552  3 14
   13 157   7   8 694 1551  0  0
   14 602   0  11 695 1552  4 15
   15 157   8  12 694 1551  0  0
   16 602   0  15 695 1552  5 16
   17 157   9  16 694 1551  0  0
   18 602   0  19 695 1552  6 17
   19 157   1  20 694 1551  0  0
   20 602   0  23 695 1552  7 18
   21 157  10  24 694 1551  0  0
   22 602   0  27 695 1552  8 19
   23 157  11  28 694 1551  0  0
   24 602   0  31 695 1552  9 20
   25 157  12  32 694 1551  0  0
   26 602   0  35 695 1552 10 21
   27 157   5  36 694 1551  0  0
   28 602   0  39 695 1552  2 22
   29 157  11  40 694 1551  0  0
   30 602   0  43 695 1552  9 23
   31 157  13  44 694 1551  0  0
   32 602   0   3 704 1552 11 29
   33 157  14   4 703 1551  0  0
   34 602   0  47 695 1552 12 30
   35 157   9  48 694 1551  0  0
   36 602   0  51 695 1552  6 31
   37 157  10  52 694 1551  0  0
   38 602   0  55 695 1552  8 32
   39 157  15  56 694 1551  0  0
   40 602   0  59 695 1552 13 33
   41 157   6  60 694 1551  0  0
   42 602   0  63 695 1552  3 34
   43 157  12  64 694 1551  0  0
   44 602   0  67 695 1552 10 35
   45 157   7  68 694 1551  0  0
   46 602   0  71 695 1552  4 36
   47 157   3  72 694 1551  0  0
   48 602   0  75 695 1552 14 37
   49 157  16  76 694 1551  0  0
   50 602   0  79 695 1552 15 38
   51 157  14  80 694 1551  0  0
   52 602   0  83 695 1552 12 39
   53 157   3  84 694 1551  0  0
   54 602   0  87 695 1552 14 40
   55 157  15  88 694 1551  0  0
   56 602   0  47 704 1552 13 41
   57 157  17  48 703 1551  0  0
   58 602   0  91 695 1552 16 42
   59 157   6  92 694 1551  0  0
   60 602   0  95 695 1552  3 43
   61 157   4  96 694 1551  0  0
   62 602   0  99 695 1552  1 44
   63 157  13 100 694 1551  0  0
   64 602   0 103 695 1552 11 45
   65 157   9 104 694 1551  0  0
   66 602   0 107 695 1552  6 46
   67 157  16 108 694 1551  0  0
   68 602   0 111 695 1552 15 47
   69 157   8 112 694 1551  0  0
   70 602   0 115 695 1552  5 48
   71 157  11 116 694 1551  0  0
   72 602   0 119 695 1552  9 49
   73 157  17 120 694 1551  0  0
   74 602   0 123 695 1552 16 50
   75 157  17 124 694 1551  0  0
   76 602   0 127 695 1552 16 51
   77 157  11 128 694 1551  0  0
   78 602   0 131 695 1552  9 52
   79 157   8 132 694 1551  0  0
   80 602   0  91 704 1552  5 53
   81 157  16  92 703 1551  0  0
   82 602   0 135 695 1552 15 54
   83 157   9 136 694 1551  0  0
   84 602   0 139 695 1552  6 55
   85 157  13 140 694 1551  0  0
   86 602   0 143 695 1552 11 56
   87 157   4 144 694 1551  0  0
   88 602   0 147 695 1552  1 57
   89 157   6 148 694 1551  0  0
   90 602   0 151 695 1552  3 58
   91 157  17 152 694 1551  0  0
   92 602   0 155 695 1552 16 59
   93 157  15 156 694 1551  0  0
   94 602   0 159 695 1552 13 60
   95 157   3 160 694 1551  0  0
   96 602   0 163 695 1552 14 61
   97 157  14 164 694 1551  0  0
   98 602   0 167 695 1552 12 62
   99 157  16 168 694 1551  0  0
  100 602   0 171 695 1552 15 63
  101 157   3 172 694 1551  0  0
  102 602   0 175 695 1552 14 64
  103 157   7 176 694 1551  0  0
  104 602   0 135 704 1552  4 65
  105 157  12 136 703 1551  0  0
  106 602   0 179 695 1552 10 66
  107 157   6 180 694 1551  0  0
  108 602   0 183 695 1552  3 67
  109 157  15 184 694 1551  0  0
  110 602   0 187 695 1552 13 68
  111 157  10 188 694 1551  0  0
  112 602   0 191 695 1552  8 69
  113 157   9 192 694 1551  0  0
  114 602   0 195 695 1552  6 70
  115 157  14 196 694 1551  0  0
  116 602   0 199 695 1552 12 71
  117 157  13 200 694 1551  0  0
  118 602   0 203 695 1552 11 72
  119 157  11 204 694 1551  0  0
  120 602   0 207 695 1552  9 73
  121 157   5 208 694 1551  0  0
  122 602   0 211 695 1552  2 74
  123 157  12 212 694 1551  0  0
  124 602   0 215 695 1552 10 75
  125 157  11 216 694 1551  0  0
  126 602   0 219 695 1552  9 76
  127 157  10 220 694 1551  0  0
  128 602   0 179 704 1552  8 77
  129 157   1 180 703 1551  0  0
  130 602   0 223 695 1552  7 78
  131 157   9 224 694 1551  0  0
  132 602   0 227 695 1552  6 79
  133 157   8 228 694 1551  0  0
  134 602   0 231 695 1552  5 80
  135 157   7 232 694 1551  0  0
  136 602   0 235 695 1552  4 81
  137 157   6 236 694 1551  0  0
  138 602   0 239 695 1552  3 82
  139 157   5 240 694 1551  0  0
  140 602   0 243 695 1552  2 83
  141 157   4 244 694 1551  0  0
  142 602   0 247 695 1552  1 84
  143 157   3 248 694 1551  0  0
  144 602   0 251 695 1552 14 85
  145 157   1 252 694 1551  0  0
  146 602   0 255 695 1552  7 86
  147 157   1 256 694 1551  0  0
  148 602   0 259 695 1552  7 87
  149 157   3 260 694 1551  0  0
  150 602   0 263 695 1552 14 88
  151 157   4 264 694 1551  0  0
  152 602   0 223 704 1552  1 89
  153 157   5 224 703 1551  0  0
  154 602   0 267 695 1552  2 90
  155 157   6 268 694 1551  0  0
  156 602   0 271 695 1552  3 91
  157 157   7 272 694 1551  0  0
  158 602   0 275 695 1552  4 92
  159 157   8 276 694 1551  0  0
  160 602   0 279 695 1552  5 93
  161 157   9 280 694 1551  0  0
  162 602   0 283 695 1552  6 94
  163 157   1 284 694 1551  0  0
  164 602   0 287 695 1552  7 95
  165 157  10 288 694 1551  0  0
  166 602   0 291 695 1552  8 96
  167 157  11 292 694 1551  0  0
  168 602   0 295 695 1552  9 97
  169 157  12 296 694 1551  0  0
  170 602   0 299 695 1552 10 98
  171 157   5 300 694 1551  0  0
  172 602   0 303 695 1552  2 99
  173 157  11 304 694 1551  0  0
  174 602   0 307 695 1552  9 100
  175 157  13 308 694 1551  0  0
  176 602   0 267 704 1552 11 101
  177 157  14 268 703 1551  0  0
  178 602   0 311 695 1552 12 102
  179 157   9 312 694 1551  0  0
  180 602   0 315 695 1552  6 103
  181 157  10 316 694 1551  0  0
  182 602   0 319 695 1552  8 104
  183 157  15 320 694 1551  0  0
  184 602   0 323 695 1552 13 105
  185 157   6 324 694 1551  0  0
  186 602   0 327 695 1552  3 106
  187 157  12 328 694 1551  0  0
  188 602   0 331 695 1552 10 107
  189 157   7 332 694 1551  0  0
  190 602   0 335 695 1552  4 108
  191 157   3 336 694 1551  0  0
  192 602   0 339 695 1552 14 109
  193 157  16 340 694 1551  0  0
  194 602   0 343 695 1552 15 110
  195 157  14 344 694 1551  0  0
  196 602   0 347 695 1552 12 111
  197 157   3 348 694 1551  0  0
  198 602   0 351 695 1552 14 112
  199 157  15 352 694 1551  0  0
  200 602   0 311 704 1552 13 113
  201 157  17 312 703 1551  0  0
  202 602   0 355 695 1552 16 114
  203 157   6 356 694 1551  0  0
  204 602   0 359 695 1552  3 115
  205 157   4 360 694 1551  0  0
  206 602   0 363 695 1552  1 116
  207 157  13 364 694 1551  0  0
  208 602   0 367 695 1552 11 117
  209 157   9 368 694 1551  0  0
  210 602   0 371 695 1552  6 118
  211 157  16 372 694 1551  0  0
[RF]
1      194.444 741 742 743 50 1370 0 0 0 0 e
2      563.681 744 745 746 5125 100 0 0 0 0 i
3      194.444 741 742 743 50 1370 0 0 0 0.872665 e
4      194.444 741 742 743 50 1370 0 0 0 2.61799 e
5      194.444 741 742 743 50 1370 0 0 0 5.23599 e
6      194.444 741 742 743 50 1370 0 0 0 2.44346 e
7      194.444 741 742 743 50 1370 0 0 0 0.523599 e
8      194.444 741 742 743 50 1370 0 0 0 5.75959 e
9      194.444 741 742 743 50 1370 0 0 0 5.58505 e
10      194.444 741 742 743 50 1370 0 0 0 1.5708 e
11      194.444 741 742 743 50 1370 0 0 0 4.01426 e
12      194.444 741 742 743 50 1370 0 0 0 1.0472 e
13      194.444 741 742 743 50 1370 0 0 0 3.66519 e
14      194.444 741 742 743 50 1370 0 0 0 4.18879 e
15      194.444 741 742 743 50 1370 0 0 0 4.71239 e
16      194.444 741 742 743 50 1370 0 0 0 2.0944 e
17      194.444 741 742 743 50 1370 0 0 0 3.14159 e

# Format of arbitrary gradients:
#   time_shape_id of 0 means default timing (stepping with grad_raster starting at 1/2 of grad_raster)
# id amplitude first last amp_shape_id time_shape_id delay
# ..      Hz/m  Hz/m Hz/m        ..         ..          us
[GRADIENTS]
3       957039            0       340608 1 0 0
4  1.21678e+06       340608            0 2 3 0
7       943976            0       340608 4 0 0
8  1.21734e+06       340608            0 5 6 0
11       930912            0       340608 7 0 0
12   1.2179e+06       340608            0 8 9 0
15       917849            0       340608 10 0 0
16  1.21848e+06       340608            0 11 12 0
19       904785            0       340608 13 0 0
20  1.19013e+06       340608            0 14 15 0
23       891722            0       340608 16 0 0
24  1.19042e+06       340608            0 17 18 0
27       878659            0       340608 19 0 0
28  1.19071e+06       340608            0 20 21 0
31       865595            0       340608 22 0 0
32  1.19101e+06       340608            0 23 24 0
35       852532            0       340608 25 0 0
36  1.16235e+06       340608            0 26 27 0
39       839469            0       340608 28 0 0
40  1.16234e+06       340608            0 29 30 0
43       826405            0       340608 31 0 0
44  1.16234e+06       340608            0 32 33 0
47       813342            0       340608 34 0 0
48  1.16233e+06       340608            0 35 36 0
51       800278            0       340608 37 0 0
52  1.13336e+06       340608            0 38 39 0
55       787215            0       340608 40 0 0
56  1.13304e+06       340608            0 41 42 0
59       774152            0       340608 43 0 0
60  1.13271e+06       340608            0 44 45 0
63       761088            0       340608 46 0 0
64  1.13237e+06       340608            0 47 48 0
67       748025            0       340608 49 0 0
68  1.10308e+06       340608            0 50 51 0
71       734962            0       340608 52 0 0
72  1.10241e+06       340608            0 53 54 0
75       721898            0       340608 55 0 0
76  1.10172e+06       340608            0 56 57 0
79       708835            0       340608 58 0 0
80  1.10102e+06       340608            0 59 60 0
83       695771            0       340608 61 0 0
84  1.07143e+06       340608            0 62 63 0
87       682708            0       340608 64 0 0
88  1.07038e+06       340608            0 65 66 0
91       669645            0       340608 67 0 0
92   1.0693e+06       340608            0 68 69 0
95       656581            0       340608 70 0 0
96   1.0682e+06       340608            0 71 72 0
99       643518            0       340608 73 0 0
100   1.0383e+06       340608            0 74 75 0
103       630455            0       340608 76 0 0
104  1.03683e+06       340608            0 77 78 0
107       617391            0       340608 79 0 0
108  1.03534e+06       340608            0 80 81 0
111       604328            0       340608 82 0 0
112   1.0338e+06       340608            0 83 84 0
115       591264            0       340608 85 0 0
116  1.01569e+06       340608            0 86 87 0
119       578201            0       340608 88 0 0
120  1.01389e+06       340608            0 89 90 0
123       565138            0       340608 91 0 0
124  1.01205e+06       340608            0 92 93 0
127       552074            0       340608 94 0 0
128       981378       340608            0 95 96 0
131       539011            0       340608 97 0 0
132       979138       340608            0 98 99 0
135       525948            0       340608 100 0 0
136       976842       340608            0 101 102 0
139       512884            0       340608 103 0 0
140       974489       340608            0 104 105 0
143       499821            0       340608 106 0 0
144       955458       340608            0 107 108 0
147       486757            0       340608 109 0 0
148       952800       340608            0 110 111 0
151       473694            0       340608 112 0 0
152       950073       340608            0 113 114 0
155       460631            0       340608 115 0 0
156       918618       340608            0 116 117 0
159       447567            0       340608 118 0 0
160       927493       340608            0 119 120 0
163       434504            0       340608 121 0 0
164       924355       340608            0 122 123 0
167       421440            0       340608 124 0 0
168       892411       340608            0 125 126 0
171       408377            0       340608 127 0 0
172       888806       340608            0 128 129 0
175       395314            0       340608 130 0 0
176       897228       340608            0 131 132 0
179       382250            0       340608 133 0 0
180       864787       340608            0 134 135 0
183       369187            0       340608 136 0 0
184       860705       340608            0 137 138 0
187       356124            0       340608 139 0 0
188       868573       340608            0 140 141 0
191       343060            0       340608 142 0 0
192       835629       340608            0 143 144 0
195       340608            0       340608 145 0 0
196       831021       340608            0 146 147 0
199       340608            0       340608 148 0 0
200       838257       340608            0 149 150 0
203       340608            0       340608 151 0 0
204       804804       340608            0 152 153 0
207       340608            0       340608 154 0 0
208       799616       340608            0 155 156 0
211       340608            0       340608 157 0 0
212       806130       340608            0 158 159 0
215       340608            0       340608 160 0 0
216       772167       340608            0 161 162 0
219       340608            0       340608 163 0 0
220       777947       340608            0 164 165 0
223       340608            0       340608 166 0 0
224       772027       340608            0 167 168 0
227       340608            0       340608 169 0 0
228       748898       340608            0 170 171 0
231       340608            0       340608 172 0 0
232       742431       340608            0 173 174 0
235       340608            0       340608 175 0 0
236       718940       340608            0 176 177 0
239       340608            0       340608 178 0 0
240       711895       340608            0 179 180 0
243       340608            0       340608 181 0 0
244       716173       340608            0 182 183 0
247       340608            0       340608 184 0 0
248       691527       340608            0 185 186 0
251       340608            0       340608 187 0 0
252       683673       340608            0 188 189 0
255       340608            0       340608 190 0 0
256       658616       340608            0 191 192 0
259       340608            0       340608 193 0 0
260       661279       340608            0 194 195 0
263       340608            0       340608 196 0 0
264       652481       340608            0 197 198 0
267       340608            0       340608 199 0 0
268       626105       340608            0 200 201 0
271       340608            0       340608 202 0 0
272       627731       340608            0 203 204 0
275       340608            0       340608 205 0 0
276       600397       340608            0 206 207 0
279       340608            0       340608 208 0 0
280       601114       340608            0 209 210 0
283       340608            0       340608 211 0 0
284       572748       340608            0 212 213 0
287       340608            0       340608 214 0 0
288       572409       340608            0 215 216 0
291       340608            0       340608 217 0 0
292       542930       340608            0 218 219 0
295      -340608            0       340608 220 0 0
296       541360       340608            0 221 222 0
299      -340608            0       340608 223 0 0
300       510679       340608            0 224 225 0
303      -340608            0       340608 226 0 0
304       507669       340608            0 227 228 0
307      -340608            0       340608 229 0 0
308       475682       340608            0 230 231 0
311      -340608            0       340608 232 0 0
312       453340       340608            0 233 234 0
315      -340608            0       340608 235 0 0
316       447520       340608            0 236 237 0
319      -340608            0       340608 238 0 0
320       422964       340608            0 239 240 0
323      -340608            0       340608 241 0 0
324       415236       340608            0 242 243 0
327      -340608            0       340608 244 0 0
328       388032       340608            0 245 246 0
331      -340608            0       340608 247 0 0
332       359433       340608            0 248 249 0
335      -340608            0       340608 250 0 0
336       340608       340608            0 251 252 0
339      -340608            0       340608 253 0 0
340       340608       340608            0 254 255 0
343      -340608            0       340608 256 0 0
344       340608       340608            0 257 258 0
347      -340608            0       340608 259 0 0
348       340608       340608            0 260 261 0
351      -340608            0       340608 262 0 0
352       340608       340608            0 263 264 0
355      -340608            0       340608 265 0 0
356       340608       340608            0 266 267 0
359      -340608            0       340608 268 0 0
360       340608       340608            0 269 270 0
363      -340608            0       340608 271 0 0
364       340608       340608            0 272 273 0
367      -340608            0       340608 274 0 0
368       340608       340608            0 275 276 0
371      -340608            0       340608 277 0 0
372       340608       340608            0 278 279 0
375      -340608            0       340608 280 0 0
376       349061       340608            0 281 282 0
379      -340608            0       340608 283 0 0
380       340608       340608            0 284 285 0
383      -340608            0       340608 286 0 0
384       380492       340608            0 287 288 0
387      -340608            0       340608 289 0 0
388       412425       340608            0 290 291 0
391      -340608            0       340608 292 0 0
392       471216       340608            0 293 294 0
395      -340608            0       340608 295 0 0
396       436369       340608            0 296 297 0
399      -340608            0       340608 298 0 0
400       466637       340608            0 299 300 0
403      -353169            0       340608 301 0 0
404       470470       340608            0 302 303 0
407      -366233            0       340608 304 0 0
408       500921       340608            0 305 306 0
411      -379296            0       340608 307 0 0
412       524559       340608            0 308 309 0
415      -392359            0       340608 310 0 0
416       528348       340608            0 311 312 0
419      -405423            0       340608 313 0 0
420       555754       340608            0 314 315 0
423      -418486            0       340608 316 0 0
424       583161       340608            0 317 318 0
427      -431550            0       340608 319 0 0
428       583050       340608            0 320 321 0
431      -444613            0       340608 322 0 0
432       608743       340608            0 323 324 0
435      -457676            0       340608 325 0 0
436       589788       340608            0 326 327 0
439      -470740            0       340608 328 0 0
440       613279       340608            0 329 330 0
443      -483803            0       340608 331 0 0
444       619082       340608            0 332 333 0
447      -496866            0       340608 334 0 0
448       617098       340608            0 335 336 0
451      -509930            0       340608 337 0 0
452       674409       340608            0 338 339 0
455      -522993            0       340608 340 0 0
456       678298       340608            0 341 342 0
459      -536057            0       340608 343 0 0
460       699934       340608            0 344 345 0
463      -549120            0       340608 346 0 0
464       703069       340608            0 347 348 0
467      -562183            0       340608 349 0 0
468       706047       340608            0 350 351 0
471      -575247            0       340608 352 0 0
472       733802       340608            0 353 354 0
475      -588310            0       340608 355 0 0
476       735906       340608            0 356 357 0
479      -601373            0       340608 358 0 0
480       755482       340608            0 359 360 0
483      -614437            0       340608 361 0 0
484       757033       340608            0 362 363 0
487      -627500            0       340608 364 0 0
488       791996       340608            0 365 366 0
491      -640564            0       340608 367 0 0
492       792682       340608            0 368 369 0
495      -653627            0       340608 370 0 0
496       793337       340608            0 371 372 0
499      -666690            0       340608 373 0 0
500       793964       340608            0 374 375 0
503      -679754            0       340608 376 0 0
504       816306       340608            0 377 378 0
507      -692817            0       340608 379 0 0
508       816428       340608            0 380 381 0
511      -705880            0       340608 382 0 0
512       816546       340608            0 383 384 0
515      -718944            0       340608 385 0 0
516       847227       340608            0 386 387 0
519      -732007            0       340608 388 0 0
520       846726       340608            0 389 390 0
523      -745071            0       340608 391 0 0
524       846245       340608            0 392 393 0
527      -758134            0       340608 394 0 0
528       875724       340608            0 395 396 0
531      -771197            0       340608 397 0 0
532       874694       340608            0 398 399 0
535      -784261            0       340608 400 0 0
536       914645       340608            0 401 402 0
539      -797324            0       340608 403 0 0
540       912866       340608            0 404 405 0
543      -810387            0       340608 406 0 0
544       911155       340608            0 407 408 0
547      -823451            0       340608 409 0 0
548       939521       340608            0 410 411 0
551      -836514            0       340608 412 0 0
552       937349       340608            0 413 414 0
555      -849578            0       340608 415 0 0
556       935255       340608            0 416 417 0
559      -862641            0       340608 418 0 0
560       962589       340608            0 419 420 0
563      -875704            0       340608 421 0 0
564       943238       340608            0 422 423 0
567      -888768            0       340608 424 0 0
568       969614       340608            0 425 426 0
571      -901831            0       340608 427 0 0
572       967072       340608            0 428 429 0
575      -914894            0       340608 430 0 0
576       964616       340608            0 431 432 0
579      -927958            0       340608 433 0 0
580   1.0013e+06       340608            0 434 435 0
583      -941021            0       340608 436 0 0
584       998260       340608            0 437 438 0
587      -954085            0       340608 439 0 0
588  1.02374e+06       340608            0 440 441 0
591      -967148            0       340608 442 0 0
592  1.02038e+06       340608            0 443 444 0
595      -980211            0       340608 445 0 0
596   1.0283e+06       340608            0 446 447 0
599      -993275            0       340608 448 0 0
600  1.02498e+06       340608            0 449 450 0
603 -1.00634e+06            0       340608 451 0 0
604  1.06084e+06       340608            0 452 453 0
607  -1.0194e+06            0       340608 454 0 0
608  1.05699e+06       340608            0 455 456 0
611 -1.03246e+06            0       340608 457 0 0
612  1.05326e+06       340608            0 458 459 0
615 -1.04553e+06            0       340608 460 0 0
616   1.0603e+06       340608            0 461 462 0
619 -1.05859e+06            0       340608 463 0 0
620  1.05663e+06       340608            0 464 465 0
623 -1.07166e+06            0       340608 466 0 0
624  1.09131e+06       340608            0 467 468 0
627 -1.08472e+06            0       340608 469 0 0
628  1.08717e+06       340608            0 470 471 0
631 -1.09778e+06            0       340608 472 0 0
632   1.1103e+06       340608            0 473 474 0
635 -1.11085e+06            0       340608 475 0 0
636  1.08943e+06       340608            0 476 477 0
639 -1.12391e+06            0       340608 478 0 0
640  1.11187e+06       340608            0 479 480 0
643 -1.13697e+06            0       340608 481 0 0
644  1.11906e+06       340608            0 482 483 0
647 -1.15004e+06            0       340608 484 0 0
648  1.14149e+06       340608            0 485 486 0
651  -1.1631e+06            0       340608 487 0 0
652  1.12032e+06       340608            0 488 489 0
655 -1.17616e+06            0       340608 490 0 0
656  1.14211e+06       340608            0 491 492 0
659 -1.18923e+06            0       340608 493 0 0
660  1.14909e+06       340608            0 494 495 0
663 -1.20229e+06            0       340608 496 0 0
664  1.17088e+06       340608            0 497 498 0
667 -1.21535e+06            0       340608 499 0 0
668  1.14948e+06       340608            0 500 501 0
671 -1.22842e+06            0       340608 502 0 0
672  1.17065e+06       340608            0 503 504 0
675 -1.24148e+06            0       340608 505 0 0
676  1.17743e+06       340608            0 506 507 0
679 -1.25454e+06            0       340608 508 0 0
680  1.19861e+06       340608            0 509 510 0
683 -1.26761e+06            0       340608 511 0 0
684  1.17703e+06       340608            0 512 513 0
687 -1.28067e+06            0       340608 514 0 0
688  1.20953e+06       340608            0 515 516 0
689       980392            0            0 517 0 0
692       971480            0            0 518 0 0
695       962567            0            0 519 0 0
698       953654            0            0 520 0 0
701       944742            0            0 521 0 0
704       935829            0            0 522 0 0
707       926916            0            0 523 0 0
711       918004            0            0 524 0 0
715       909091            0            0 525 0 0
719       900178            0            0 526 0 0
723       891266            0            0 527 0 0
727       882353            0            0 528 0 0
731       873440            0            0 529 0 0
735       864528            0            0 530 0 0
739       855615            0            0 531 0 0
743       846702            0            0 532 0 0
747       837790            0            0 533 0 0
751       828877            0            0 534 0 0
755       819964            0            0 535 0 0
759       811052            0            0 536 0 0
763       802139            0            0 537 0 0
767       793226            0            0 538 0 0
