# Pulseq sequence file
# Created by MATLAB mr toolbox

[VERSION]
major 1
minor 4
revision 1

[DEFINITIONS]
AdcRasterTime 1e-07 
BlockDurationRaster 1e-05 
CalPart0_IsACS 0 
CalPart0_KyPhysStart0 74 
CalPart0_KyPhysStop0 145 
CalPart0_KzPhysStart0 86 
CalPart0_KzPhysStop0 86 
CalPart0_Mode nowave 
CalPart0_NLinLocal 72 
CalPart0_NParLocal 1 
CalPart0_Name nowave_kywide_kznarrow 
CalPart0_SetID 0 
CalPart1_IsACS 0 
CalPart1_KyPhysStart0 74 
CalPart1_KyPhysStop0 145 
CalPart1_KzPhysStart0 86 
CalPart1_KzPhysStop0 86 
CalPart1_Mode sin 
CalPart1_NLinLocal 72 
CalPart1_NParLocal 1 
CalPart1_Name sin_kywide_kznarrow 
CalPart1_SetID 1 
CalPart2_IsACS 0 
CalPart2_KyPhysStart0 110 
CalPart2_KyPhysStop0 110 
CalPart2_KzPhysStart0 50 
CalPart2_KzPhysStop0 121 
CalPart2_Mode nowave 
CalPart2_NLinLocal 1 
CalPart2_NParLocal 72 
CalPart2_Name nowave_kzwide_kynarrow 
CalPart2_SetID 2 
CalPart3_IsACS 0 
CalPart3_KyPhysStart0 110 
CalPart3_KyPhysStop0 110 
CalPart3_KzPhysStart0 50 
CalPart3_KzPhysStop0 121 
CalPart3_Mode cos 
CalPart3_NLinLocal 1 
CalPart3_NParLocal 72 
CalPart3_Name cos_kzwide_kynarrow 
CalPart3_SetID 3 
CalPart4_IsACS 1 
CalPart4_KyPhysStart0 94 
CalPart4_KyPhysStop0 125 
CalPart4_KzPhysStart0 70 
CalPart4_KzPhysStop0 101 
CalPart4_Mode nowave 
CalPart4_NLinLocal 32 
CalPart4_NParLocal 32 
CalPart4_Name acs_nowave_center 
CalPart4_SetID 4 
Calibration_ACSLocalStart0 0 
Calibration_ACSLocalStop0 31 
Calibration_ACSSetID 4 
Calibration_AllSetsInRefscan 1 
Calibration_NParts 5 
Calibration_Nacs 32 
Calibration_Ncalib1 72 
Calibration_Ncalib2 1 
Calibration_Ndummy 300 
Calibration_NsettlePerPart 10 
Calibration_RefscanADCs 1312 
Calibration_RefscanNLin 72 
Calibration_RefscanNPar 72 
Calibration_RefscanNSets 5 
Calibration_TE 0.0036325 
Calibration_TRinner 0.00773 
FOV 0.172 0.22 0.256 
FlipAngle 7 
GradientRasterTime 1e-05 
InnerPEAxis x 
MPRAGE_ETL_Blocks 67 
MPRAGE_ETL_CenterSlot0 96 
MPRAGE_ETL_DummySlots 308 
MPRAGE_ETL_Efficiency 0.977272727 
MPRAGE_ETL_FillerPerKy 4 
MPRAGE_ETL_Mode segmented 
MPRAGE_ETL_RealSlots 12556 
MPRAGE_ETL_SegLen 16 
MPRAGE_ETL_SegmentsPerBlock 12 
MPRAGE_ETL_SegmentsPerKy 11 
MPRAGE_ETL_Target 192 
MPRAGE_HasSeparateACS 0 
MPRAGE_ImageADCs 12556 
MPRAGE_PE1_ImgLines 172 
MPRAGE_PE1_R 1 
MPRAGE_PE2_ImgLines 73 
MPRAGE_PE2_R 3 
MPRAGE_TI 1.1 
MPRAGE_TRinner 0.00773 
MPRAGE_TRout 2.5 
MPRAGE_UseWaveCos 1 
MPRAGE_UseWaveSin 1 
Name mprage_3d_wave_FOV172x220x256_res1x1x1_ETL192_R1-1_R2-3_os4_amp8_cyc10_SAG_skyra 
Nx 172 
Nx_os 1024 
Ny 220 
Nz 256 
OrientationMapping SAG 
OuterPEAxis y 
PhaseResolution 1 
RadiofrequencyRasterTime 1e-06 
ReadoutAxis z 
ReadoutOversamplingFactor 4 
ReceiverGainHigh 1 
RequestedResolutionX_mm 1 
RequestedResolutionY_mm 1 
RequestedResolutionZ_mm 1 
ResolutionX_mm 1 
ResolutionY_mm 1 
ResolutionZ_mm 1 
SliceThickness 0.001 
TE 0.0036325 
TR 2.5 
TotalDuration 180.34873 
kSpaceCenterLine 110 
kSpaceCenterPartition 86 
ro_os 4 

# Format of blocks:
# NUM DUR RF  GX  GY  GZ  ADC  EXT
[BLOCKS]
    1 1044   2   0   0   0  0  0
    2 35118   0   0 1560   0  0  0
    3 167   1   0   0   0  0  0
    4 606   0 655 696 1562  0  0
    5 167   3 656 697 1561  0  0
    6 606   0 659 696 1562  0  0
    7 167   4 660 697 1561  0  0
    8 606   0 663 708 1562  1  6
    9 167   5 664 709 1561  0  0
   10 606   0   3 696 1562  2 12
   11 167   6   4 697 1561  0  0
   12 606   0   7 696 1562  3 14
   13 167   7   8 697 1561  0  0
   14 606   0  11 696 1562  4 15
   15 167   8  12 697 1561  0  0
   16 606   0  15 696 1562  5 16
   17 167   9  16 697 1561  0  0
   18 606   0  19 696 1562  6 17
   19 167   1  20 697 1561  0  0
   20 606   0  23 696 1562  7 18
   21 167  10  24 697 1561  0  0
   22 606   0  27 696 1562  8 19
   23 167  11  28 697 1561  0  0
   24 606   0  31 696 1562  9 20
   25 167  12  32 697 1561  0  0
   26 606   0  35 696 1562 10 21
   27 167   5  36 697 1561  0  0
   28 606   0  39 696 1562  2 22
   29 167  11  40 697 1561  0  0
   30 606   0  43 696 1562  9 23
   31 167  13  44 697 1561  0  0
   32 606   0   3 708 1562 11 29
   33 167  14   4 709 1561  0  0
   34 606   0  47 696 1562 12 30
   35 167   9  48 697 1561  0  0
   36 606   0  51 696 1562  6 31
   37 167  10  52 697 1561  0  0
   38 606   0  55 696 1562  8 32
   39 167  15  56 697 1561  0  0
   40 606   0  59 696 1562 13 33
   41 167   6  60 697 1561  0  0
   42 606   0  63 696 1562  3 34
   43 167  12  64 697 1561  0  0
   44 606   0  67 696 1562 10 35
   45 167   7  68 697 1561  0  0
   46 606   0  71 696 1562  4 36
   47 167   3  72 697 1561  0  0
   48 606   0  75 696 1562 14 37
   49 167  16  76 697 1561  0  0
   50 606   0  79 696 1562 15 38
   51 167  14  80 697 1561  0  0
   52 606   0  83 696 1562 12 39
   53 167   3  84 697 1561  0  0
   54 606   0  87 696 1562 14 40
   55 167  15  88 697 1561  0  0
   56 606   0  47 708 1562 13 41
   57 167  17  48 709 1561  0  0
   58 606   0  91 696 1562 16 42
   59 167   6  92 697 1561  0  0
   60 606   0  95 696 1562  3 43
   61 167   4  96 697 1561  0  0
   62 606   0  99 696 1562  1 44
   63 167  13 100 697 1561  0  0
   64 606   0 103 696 1562 11 45
   65 167   9 104 697 1561  0  0
   66 606   0 107 696 1562  6 46
   67 167  16 108 697 1561  0  0
   68 606   0 111 696 1562 15 47
   69 167   8 112 697 1561  0  0
   70 606   0 115 696 1562  5 48
   71 167  11 116 697 1561  0  0
   72 606   0 119 696 1562  9 49
   73 167  17 120 697 1561  0  0
   74 606   0 123 696 1562 16 50
   75 167  17 124 697 1561  0  0
   76 606   0 127 696 1562 16 51
   77 167  11 128 697 1561  0  0
   78 606   0 131 696 1562  9 52
   79 167   8 132 697 1561  0  0
   80 606   0  91 708 1562  5 53
   81 167  16  92 709 1561  0  0
   82 606   0 135 696 1562 15 54
   83 167   9 136 697 1561  0  0
   84 606   0 139 696 1562  6 55
   85 167  13 140 697 1561  0  0
   86 606   0 143 696 1562 11 56
   87 167   4 144 697 1561  0  0
   88 606   0 147 696 1562  1 57
   89 167   6 148 697 1561  0  0
   90 606   0 151 696 1562  3 58
   91 167  17 152 697 1561  0  0
   92 606   0 155 696 1562 16 59
   93 167  15 156 697 1561  0  0
   94 606   0 159 696 1562 13 60
   95 167   3 160 697 1561  0  0
   96 606   0 163 696 1562 14 61
   97 167  14 164 697 1561  0  0
   98 606   0 167 696 1562 12 62
   99 167  16 168 697 1561  0  0
  100 606   0 171 696 1562 15 63
  101 167   3 172 697 1561  0  0
  102 606   0 175 696 1562 14 64
  103 167   7 176 697 1561  0  0
  104 606   0 135 708 1562  4 65
  105 167  12 136 709 1561  0  0
  106 606   0 179 696 1562 10 66
  107 167   6 180 697 1561  0  0
  108 606   0 183 696 1562  3 67
  109 167  15 184 697 1561  0  0
  110 606   0 187 696 1562 13 68
  111 167  10 188 697 1561  0  0
  112 606   0 191 696 1562  8 69
  113 167   9 192 697 1561  0  0
  114 606   0 195 696 1562  6 70
  115 167  14 196 697 1561  0  0
  116 606   0 199 696 1562 12 71
  117 167  13 200 697 1561  0  0
  118 606   0 203 696 1562 11 72
  119 167  11 204 697 1561  0  0
  120 606   0 207 696 1562  9 73
  121 167   5 208 697 1561  0  0
  122 606   0 211 696 1562  2 74
  123 167  12 212 697 1561  0  0
  124 606   0 215 696 1562 10 75
  125 167  11 216 697 1561  0  0
  126 606   0 219 696 1562  9 76
  127 167  10 220 697 1561  0  0
  128 606   0 179 708 1562  8 77
  129 167   1 180 709 1561  0  0
  130 606   0 223 696 1562  7 78
  131 167   9 224 697 1561  0  0
  132 606   0 227 696 1562  6 79
  133 167   8 228 697 1561  0  0
  134 606   0 231 696 1562  5 80
  135 167   7 232 697 1561  0  0
  136 606   0 235 696 1562  4 81
  137 167   6 236 697 1561  0  0
  138 606   0 239 696 1562  3 82
  139 167   5 240 697 1561  0  0
  140 606   0 243 696 1562  2 83
  141 167   4 244 697 1561  0  0
  142 606   0 247 696 1562  1 84
  143 167   3 248 697 1561  0  0
  144 606   0 251 696 1562 14 85
  145 167   1 252 697 1561  0  0
  146 606   0 255 696 1562  7 86
  147 167   1 256 697 1561  0  0
  148 606   0 259 696 1562  7 87
  149 167   3 260 697 1561  0  0
  150 606   0 263 696 1562 14 88
  151 167   4 264 697 1561  0  0
  152 606   0 223 708 1562  1 89
  153 167   5 224 709 1561  0  0
  154 606   0 267 696 1562  2 90
  155 167   6 268 697 1561  0  0
  156 606   0 271 696 1562  3 91
  157 167   7 272 697 1561  0  0
  158 606   0 275 696 1562  4 92
  159 167   8 276 697 1561  0  0
  160 606   0 279 696 1562  5 93
  161 167   9 280 697 1561  0  0
  162 606   0 283 696 1562  6 94
  163 167   1 284 697 1561  0  0
  164 606   0 287 696 1562  7 95
  165 167  10 288 697 1561  0  0
  166 606   0 291 696 1562  8 96
  167 167  11 292 697 1561  0  0
  168 606   0 295 696 1562  9 97
  169 167  12 296 697 1561  0  0
  170 606   0 299 696 1562 10 98
  171 167   5 300 697 1561  0  0
  172 606   0 303 696 1562  2 99
  173 167  11 304 697 1561  0  0
  174 606   0 307 696 1562  9 100
  175 167  13 308 697 1561  0  0
  176 606   0 267 708 1562 11 101
  177 167  14 268 709 1561  0  0
  178 606   0 311 696 1562 12 102
  179 167   9 312 697 1561  0  0
  180 606   0 315 696 1562  6 103
  181 167  10 316 697 1561  0  0
  182 606   0 319 696 1562  8 104
  183 167  15 320 697 1561  0  0
  184 606   0 323 696 1562 13 105
  185 167   6 324 697 1561  0  0
  186 606   0 327 696 1562  3 106
  187 167  12 328 697 1561  0  0
  188 606   0 331 696 1562 10 107
  189 167   7 332 697 1561  0  0
  190 606   0 335 696 1562  4 108
  191 167   3 336 697 1561  0  0
  192 606   0 339 696 1562 14 109
  193 167  16 340 697 1561  0  0
  194 606   0 343 696 1562 15 110
  195 167  14 344 697 1561  0  0
  196 606   0 347 696 1562 12 111
  197 167   3 348 697 1561  0  0
  198 606   0 351 696 1562 14 112
  199 167  15 352 697 1561  0  0
  200 606   0 311 708 1562 13 113
  201 167  17 312 709 1561  0  0
  202 606   0 355 696 1562 16 114
  203 167   6 356 697 1561  0  0
  204 606   0 359 696 1562  3 115
  205 167   4 360 697 1561  0  0
  206 606   0 363 696 1562  1 116
  207 167  13 364 697 1561  0  0
  208 606   0 367 696 1562 11 117
  209 167   9 368 697 1561  0  0
  210 606   0 371 696 1562  6 118
  211 167  16 372 697 1561  0  0
[RF]
1      194.444 741 742 743 1470 0 0
2      563.681 744 745 746 100 0 0
3      194.444 741 742 743 1470 0 0.872665
4      194.444 741 742 743 1470 0 2.61799
5      194.444 741 742 743 1470 0 5.23599
6      194.444 741 742 743 1470 0 2.44346
7      194.444 741 742 743 1470 0 0.523599
8      194.444 741 742 743 1470 0 5.75959
9      194.444 741 742 743 1470 0 5.58505
10      194.444 741 742 743 1470 0 1.5708
11      194.444 741 742 743 1470 0 4.01426
12      194.444 741 742 743 1470 0 1.0472
13      194.444 741 742 743 1470 0 3.66519
14      194.444 741 742 743 1470 0 4.18879
15      194.444 741 742 743 1470 0 4.71239
16      194.444 741 742 743 1470 0 2.0944
17      194.444 741 742 743 1470 0 3.14159

# Format of arbitrary gradients:
#   time_shape_id of 0 means default timing (stepping with grad_raster starting at 1/2 of grad_raster)
# id amplitude amp_shape_id time_shape_id delay
# ..      Hz/m       ..         ..          us
[GRADIENTS]
3       908560 1 0 0
4  1.17094e+06 2 3 0
7       896059 4 0 0
8  1.17102e+06 5 6 0
11       883557 7 0 0
12  1.14505e+06 8 9 0
15       871055 10 0 0
16  1.14488e+06 11 12 0
19       858554 13 0 0
20   1.1447e+06 14 15 0
23       846052 16 0 0
24  1.14452e+06 17 18 0
27       833550 19 0 0
28  1.11831e+06 20 21 0
31       821049 22 0 0
32  1.11786e+06 23 24 0
35       808547 25 0 0
36  1.11741e+06 26 27 0
39       796045 28 0 0
40  1.11694e+06 29 30 0
43       783544 31 0 0
44  1.09048e+06 32 33 0
47       771042 34 0 0
48  1.08974e+06 35 36 0
51       758540 37 0 0
52  1.08898e+06 38 39 0
55       746039 40 0 0
56  1.08822e+06 41 42 0
59       733537 43 0 0
60  1.08743e+06 44 45 0
63       721035 46 0 0
64  1.06044e+06 47 48 0
67       708534 49 0 0
68  1.05937e+06 50 51 0
71       696032 52 0 0
72  1.05827e+06 53 54 0
75       683530 55 0 0
76  1.05714e+06 56 57 0
79       671029 58 0 0
80   1.0299e+06 59 60 0
83       658527 61 0 0
84  1.03965e+06 62 63 0
87       646026 64 0 0
88  1.01231e+06 65 66 0
91       633524 67 0 0
92  1.01067e+06 68 69 0
95       621022 70 0 0
96    1.009e+06 71 72 0
99       608521 73 0 0
100  1.00729e+06 74 75 0
103       596019 76 0 0
104  1.00554e+06 77 78 0
107       583517 79 0 0
108       977666 80 81 0
111       571016 82 0 0
112       986672 83 84 0
115       558514 85 0 0
116       958694 86 87 0
119       546012 88 0 0
120       956375 89 90 0
123       533511 91 0 0
124       954002 92 93 0
127       521009 94 0 0
128       951575 95 96 0
131       508507 97 0 0
132       949090 98 99 0
135       496006 100 0 0
136       931403 101 102 0
139       483504 103 0 0
140       928648 104 105 0
143       471002 106 0 0
144       925827 107 108 0
147       458501 109 0 0
148       896908 110 111 0
151       445999 112 0 0
152       904603 113 114 0
155       433498 115 0 0
156       901416 116 117 0
159       420996 118 0 0
160       872089 119 120 0
163       408494 121 0 0
164       879356 122 123 0
167       395993 124 0 0
168       875768 125 126 0
171       383491 127 0 0
172       846028 128 129 0
175       370989 130 0 0
176       852814 131 132 0
179       358488 133 0 0
180       848788 134 135 0
183       345986 136 0 0
184       818632 137 138 0
187       340608 139 0 0
188       824875 140 141 0
191       340608 142 0 0
192       820370 143 144 0
195       340608 145 0 0
196       800324 146 147 0
199       340608 148 0 0
200       795426 149 150 0
203       340608 151 0 0
204       790394 152 153 0
207       340608 154 0 0
208       769799 155 156 0
211       340608 157 0 0
212       764341 158 159 0
215       340608 160 0 0
216       743460 161 162 0
219       340608 163 0 0
220       748091 164 165 0
223       340608 166 0 0
224       742081 167 168 0
227       340608 169 0 0
228       720292 170 171 0
231       340608 172 0 0
232       713785 173 174 0
235       340608 175 0 0
236       691676 176 177 0
239       340608 178 0 0
240       695018 179 180 0
243       340608 181 0 0
244       687822 182 183 0
247       340608 184 0 0
248       664692 185 186 0
251       340608 187 0 0
252       641563 188 189 0
255       340608 190 0 0
256       633419 191 192 0
259       340608 193 0 0
260       635097 194 195 0
263       340608 196 0 0
264       610849 197 198 0
267       340608 199 0 0
268       611830 200 201 0
271       340608 202 0 0
272       586774 203 204 0
275       340608 205 0 0
276       586959 206 207 0
279       340608 208 0 0
280       561039 209 210 0
283       340608 211 0 0
284       560312 212 213 0
287       340608 214 0 0
288       533465 215 216 0
291       340608 217 0 0
292       531690 218 219 0
295      -340608 220 0 0
296       503849 221 222 0
299      -340608 223 0 0
300       500867 224 225 0
303      -340608 226 0 0
304       481209 227 228 0
307      -340608 229 0 0
308       477120 230 231 0
311      -340608 232 0 0
312       455739 233 234 0
315      -340608 235 0 0
316       424418 236 237 0
319      -340608 238 0 0
320       401461 239 240 0
323      -340608 241 0 0
324       402407 242 243 0
327      -340608 244 0 0
328       368239 245 246 0
331      -340608 247 0 0
332       366822 248 249 0
335      -340608 250 0 0
336       340608 251 252 0
339      -340608 253 0 0
340       340608 254 255 0
343      -340608 256 0 0
344       340608 257 258 0
347      -340608 259 0 0
348       340608 260 261 0
351      -340608 262 0 0
352       340608 263 264 0
355      -340608 265 0 0
356       340608 266 267 0
359      -340608 268 0 0
360       340608 269 270 0
363      -340608 271 0 0
364       340608 272 273 0
367      -340608 274 0 0
368       340608 275 276 0
371      -340608 277 0 0
372       340608 278 279 0
375      -340608 280 0 0
376       348564 281 282 0
379      -340608 283 0 0
380       393799 284 285 0
383      -340608 286 0 0
384       344437 287 288 0
387      -340608 289 0 0
388       396943 290 291 0
391      -340608 292 0 0
392       449797 293 294 0
395      -340608 295 0 0
396       418187 296 297 0
399      -340608 298 0 0
400       447971 299 300 0
403      -345307 301 0 0
404       475465 302 303 0
407      -357809 304 0 0
408       500921 305 306 0
411      -370310 307 0 0
412       524559 308 309 0
415      -382812 310 0 0
416       528348 311 312 0
419      -395314 313 0 0
420       555754 314 315 0
423      -407815 316 0 0
424       557357 317 318 0
427      -420317 319 0 0
428       583050 320 321 0
431      -432818 322 0 0
432       582953 323 324 0
435      -445320 325 0 0
436       607135 326 327 0
439      -457822 328 0 0
440       605705 329 330 0
443      -470323 331 0 0
444       628543 332 333 0
447      -482825 334 0 0
448       633777 335 336 0
451      -495327 337 0 0
452       631090 338 339 0
455      -507828 340 0 0
456       635868 341 342 0
459      -520330 343 0 0
460       633274 344 345 0
463      -532832 346 0 0
464       685388 347 348 0
467      -545333 349 0 0
468       688645 350 351 0
471      -557835 352 0 0
472       708221 353 354 0
475      -570337 355 0 0
476       710871 356 357 0
479      -582838 358 0 0
480       713401 359 360 0
483      -595340 361 0 0
484       738525 362 363 0
487      -607842 364 0 0
488       740344 365 366 0
491      -620343 367 0 0
492       742085 368 369 0
495      -632845 370 0 0
496       759578 371 372 0
499      -645347 373 0 0
500       791566 374 375 0
503      -657848 376 0 0
504       792203 377 378 0
507      -670350 379 0 0
508       792815 380 381 0
511      -682851 382 0 0
512       793403 383 384 0
515      -695353 385 0 0
516       814003 386 387 0
519      -707855 388 0 0
520       814160 389 390 0
523      -720356 391 0 0
524       814311 392 393 0
527      -732858 394 0 0
528       842677 395 396 0
531      -745360 397 0 0
532       842298 398 399 0
535      -757861 400 0 0
536       841932 401 402 0
539      -770363 403 0 0
540       869267 404 405 0
543      -782865 406 0 0
544       868426 407 408 0
547      -795366 409 0 0
548       867615 410 411 0
551      -807868 412 0 0
552       893990 413 414 0
555      -820370 415 0 0
556       902439 416 417 0
559      -832871 418 0 0
560       901055 419 420 0
563      -845373 421 0 0
564       926976 422 423 0
567      -857875 424 0 0
568       925199 425 426 0
571      -870376 427 0 0
572       950681 428 429 0
575      -882878 430 0 0
576       948539 431 432 0
579      -895379 433 0 0
580       946468 434 435 0
583      -907881 436 0 0
584       955451 437 438 0
587      -920383 439 0 0
588       953335 440 441 0
591      -932884 442 0 0
592       977199 443 444 0
595      -945386 445 0 0
596       974776 446 447 0
599      -957888 448 0 0
600       982301 449 450 0
603      -970389 451 0 0
604  1.00579e+06 452 453 0
607      -982891 454 0 0
608  1.00297e+06 455 456 0
611      -995393 457 0 0
612   1.0261e+06 458 459 0
615 -1.00789e+06 460 0 0
616  1.00774e+06 461 462 0
619  -1.0204e+06 463 0 0
620  1.03018e+06 464 465 0
623  -1.0329e+06 466 0 0
624  1.02712e+06 467 468 0
627  -1.0454e+06 469 0 0
628   1.0342e+06 470 471 0
631  -1.0579e+06 472 0 0
632  1.05631e+06 473 474 0
635  -1.0704e+06 475 0 0
636  1.05292e+06 476 477 0
639  -1.0829e+06 478 0 0
640  1.05935e+06 479 480 0
643 -1.09541e+06 481 0 0
644  1.05601e+06 482 483 0
647 -1.10791e+06 484 0 0
648  1.08771e+06 485 486 0
651 -1.12041e+06 487 0 0
652  1.08397e+06 488 489 0
655 -1.13291e+06 490 0 0
656  1.10514e+06 491 492 0
659 -1.14541e+06 493 0 0
660  1.08613e+06 494 495 0
663 -1.15791e+06 496 0 0
664  1.10672e+06 497 498 0
667 -1.17042e+06 499 0 0
668  1.11332e+06 500 501 0
671 -1.18292e+06 502 0 0
672  1.13391e+06 503 504 0
675 -1.19542e+06 505 0 0
676  1.11464e+06 506 507 0
679 -1.20792e+06 508 0 0
680  1.13468e+06 509 510 0
683 -1.22042e+06 511 0 0
684   1.1411e+06 512 513 0
687 -1.23292e+06 514 0 0
688  1.16115e+06 515 516 0
689       961538 517 0 0
692       952797 518 0 0
696       944056 519 0 0
700       935315 520 0 0
704       926573 521 0 0
708       917832 522 0 0
712       909091 523 0 0
716       900350 524 0 0
720       891608 525 0 0
724       882867 526 0 0
728       874126 527 0 0
732       865385 528 0 0
736       856643 529 0 0
740       847902 530 0 0
744       839161 531 0 0
748       830420 532 0 0
752       821678 533 0 0
756       812937 534 0 0
760       804196 535 0 0
764       795455 536 0 0
768       786713 537 0 0
772       777972 538 0 0
776       769231 539 0 0
780       760490 540 0 0
784       751748 541 0 0
788       743007 542 0 0
792       734266 543 0 0
796       725524 544 0 0
800       716783 545 0 0
804       708042 546 0 0
808       699301 547 0 0
812       690559 548 0 0
816       681818 549 0 0
820       673077 550 0 0
824       664336 551 0 0
828       655594 552 0 0
832       646853 553 0 0
836       638112 554 0 0
840       629371 555 0 0
844       620629 556 0 0
848       611888 557 0 0
852       603147 558 0 0
856       594406 559 0 0
860       585664 560 0 0
864       576923 561 0 0
868       568182 562 0 0
872       559441 563 0 0
876       550699 564 0 0
880       541958 565 0 0
884       533217 566 0 0
888       524476 567 0 0
892       515734 568 0 0
896       506993 569 0 0
900       498252 570 0 0
904       489510 571 0 0
906       480769 572 0 0
910       472028 573 0 0
914       463287 574 0 0
918       454545 575 0 0
922       445804 576 0 0
926       437063 577 0 0
930       428322 578 0 0
934       419580 579 0 0
938       410839 580 0 0
942       402098 581 0 0
946       393357 582 0 0
950       384615 583 0 0
954       375874 584 0 0
958       367133 585 0 0
962       358392 586 0 0
966       349650 587 0 0
970       340909 588 0 0
974       340608 589 0 0
978       340608 590 0 0
982       340608 591 0 0
986       340608 592 0 0
990       340608 593 0 0
994       340608 594 0 0
998       340608 595 0 0
1002       340608 596 0 0
1006       340608 597 0 0
1010       340608 598 0 0
1014       340608 599 0 0
1018       340608 600 0 0
1022       340608 601 0 0
1026       340608 602 0 0
1030       340608 603 0 0
1034       340608 604 0 0
1038       340608 605 0 0
1042       340608 606 0 0
1046       340608 607 0 0
1050       340608 608 0 0
1054       340608 609 0 0
1058       340608 610 0 0
1062       340608 611 0 0
1066       340608 612 0 0
1070       340608 613 0 0
1074       340608 614 0 0
1078       340608 615 0 0
1082       340608 616 0 0
1086       340608 617 0 0
1090       340608 618 0 0
1094       340608 619 0 0
1098       340608 620 0 0
1102       340608 621 0 0
1106       340608 622 0 0
1110       340608 623 0 0
1114       340608 624 0 0
1118       340608 625 0 0
1122       340608 626 0 0
1124       340608 627 0 0
1128      -340608 628 0 0
1132      -340608 629 0 0
1136      -340608 630 0 0
1140      -340608 631 0 0
1144      -340608 632 0 0
1148      -340608 633 0 0
1152      -340608 634 0 0
1156      -340608 635 0 0
1160      -340608 636 0 0
1164      -340608 637 0 0
1168      -340608 638 0 0
1172      -340608 639 0 0
1176      -340608 640 0 0
1180      -340608 641 0 0
1184      -340608 642 0 0
1188      -340608 643 0 0
1192      -340608 644 0 0
1196      -340608 645 0 0
1200      -340608 646 0 0
1204      -340608 647 0 0
1208      -340608 648 0 0
1212      -340608 649 0 0
1216      -340608 650 0 0
1220      -340608 651 0 0
1224      -340608 652 0 0
1228      -340608 653 0 0
1232      -340608 654 0 0
1236      -340608 655 0 0
1240      -340608 656 0 0
1244      -340608 657 0 0
1248      -340608 658 0 0
1252      -340608 659 0 0
1256      -340608 660 0 0
1260      -340608 661 0 0
1264      -340608 662 0 0
1268      -340608 663 0 0
1272      -340608 664 0 0
1276      -340608 665 0 0
1280      -340909 666 0 0
1284      -349650 667 0 0
1288      -358392 668 0 0
1292      -367133 669 0 0
1296      -375874 670 0 0
1300      -384615 671 0 0
1304      -393357 672 0 0
1308      -402098 673 0 0
1312      -410839 674 0 0
1316      -419580 675 0 0
1320      -428322 676 0 0
1324      -437063 677 0 0
1328      -445804 678 0 0
1332      -454545 679 0 0
1336      -463287 680 0 0
1340      -472028 681 0 0
1342      -480769 682 0 0
1346      -489510 683 0 0
1350      -498252 684 0 0
1354      -506993 685 0 0
1358      -515734 686 0 0
1362      -524476 687 0 0
1366      -533217 688 0 0
1370      -541958 689 0 0
1374      -550699 690 0 0
1378      -559441 691 0 0
1382      -568182 692 0 0
1386      -576923 693 0 0
1390      -585664 694 0 0
1394      -594406 695 0 0
1398      -603147 696 0 0
1402      -611888 697 0 0
1406      -620629 698 0 0
1410      -629371 699 0 0
1414      -638112 700 0 0
1418      -646853 701 0 0
1422      -655594 702 0 0
1426      -664336 703 0 0
1430      -673077 704 0 0
1434      -681818 705 0 0
1438      -690559 706 0 0
1442      -699301 707 0 0
1446      -708042 708 0 0
1450      -716783 709 0 0
1454      -725524 710 0 0
1458      -734266 711 0 0
1462      -743007 712 0 0
1466      -751748 713 0 0
1470      -760490 714 0 0
1474      -769231 715 0 0
1478      -777972 716 0 0
1482      -786713 717 0 0
1486      -795455 718 0 0
1490      -804196 719 0 0
1494      -812937 720 0 0
1498      -821678 721 0 0
1502      -830420 722 0 0
1506      -839161 723 0 0
1510      -847902 724 0 0
1514      -856643 725 0 0
1518      -865385 726 0 0
1522      -874126 727 0 0
1526      -882867 728 0 0
1530      -891608 729 0 0
1534      -900350 730 0 0
1538      -909091 731 0 0
1542      -917832 732 0 0
1546      -926573 733 0 0
1550      -935315 734 0 0
1554      -944056 735 0 0
1558      -952797 736 0 0
1561  1.61706e+06 737 738 0
1562      -989009 739 740 0

# Format of trapezoid gradients:
# id amplitude rise flat fall delay
# ..      Hz/m   us   us   us    us
[TRAP]
 1       961538 360  160 360   0
 2 -1.13636e+06 440    0 440   0
 5       950358 360  160 360   0
 6 -1.12315e+06 440    0 440   0
 9       939177 360  160 360   0
10 -1.10994e+06 440    0 440   0
13       927996 360  160 360   0
14 -1.09672e+06 440    0 440   0
17       916816 360  160 360   0
18 -1.08351e+06 440    0 440   0
21       905635 360  160 360   0
22  -1.0703e+06 440    0 440   0
25       894454 360  160 360   0
26 -1.05708e+06 440    0 440   0
29       883274 360  160 360   0
30 -1.04387e+06 440    0 440   0
33       872093 360  160 360   0
34 -1.03066e+06 440    0 440   0
37       860912 360  160 360   0
38 -1.01744e+06 440    0 440   0
41       849732 360  160 360   0
42 -1.00423e+06 440    0 440   0
45       838551 360  160 360   0
46      -991015 440    0 440   0
49       827370 360  160 360   0
50      -977801 440    0 440   0
53       816190 360  160 360   0
54      -964588 440    0 440   0
57       805009 360  160 360   0
58      -951374 440    0 440   0
61       793828 360  160 360   0
62      -938161 440    0 440   0
65       782648 360  160 360   0
66      -924947 440    0 440   0
69       771467 360  160 360   0
70      -911734 440    0 440   0
73       760286 360  160 360   0
74      -898520 440    0 440   0
77       749106 360  160 360   0
78      -885307 440    0 440   0
81       737925 360  160 360   0
82      -872093 440    0 440   0
85       726744 360  160 360   0
86      -858879 440    0 440   0
89       715564 360  160 360   0
90      -845666 440    0 440   0
93       704383 360  160 360   0
94      -832452 440    0 440   0
97       693202 360  160 360   0
98      -819239 440    0 440   0
101       682021 360  160 360   0
102      -806025 440    0 440   0
105       670841 360  160 360   0
106      -792812 440    0 440   0
109       659660 360  160 360   0
110      -779598 440    0 440   0
113       648479 360  160 360   0
114      -766385 440    0 440   0
117       637299 360  160 360   0
118      -753171 440    0 440   0
121       626118 360  160 360   0
122      -739958 440    0 440   0
125       614937 360  160 360   0
126      -726744 440    0 440   0
129       603757 360  160 360   0
130      -713531 440    0 440   0
133       592576 360  160 360   0
134      -700317 440    0 440   0
137       581395 360  160 360   0
138      -687104 440    0 440   0
141       570215 360  160 360   0
142      -673890 440    0 440   0
145       559034 360  160 360   0
146      -660677 440    0 440   0
149       547853 360  160 360   0
150      -647463 440    0 440   0
153       536673 360  160 360   0
154      -634249 440    0 440   0
157       525492 360  160 360   0
158      -621036 440    0 440   0
161       514311 360  160 360   0
162      -607822 440    0 440   0
165       503131 360  160 360   0
166      -594609 440    0 440   0
169       491950 360  160 360   0
170      -581395 440    0 440   0
173       480769 360  160 360   0
174      -568182 440    0 440   0
177       469589 360  160 360   0
178      -554968 440    0 440   0
181       458408 360  160 360   0
182      -541755 440    0 440   0
185       447227 360  160 360   0
186      -528541 440    0 440   0
189       436047 360  160 360   0
190      -515328 440    0 440   0
193       424866 360  160 360   0
194      -502114 440    0 440   0
197       413685 360  160 360   0
198      -488901 440    0 440   0
201       402504 360  160 360   0
202      -475687 440    0 440   0
205       391324 360  160 360   0
206      -462474 440    0 440   0
209       380143 360  160 360   0
210      -449260 440    0 440   0
213       368962 360  160 360   0
214      -436047 440    0 440   0
217       357782 360  160 360   0
218      -422833 440    0 440   0
221       346601 360  160 360   0
222      -409619 440    0 440   0
225       335420 360  160 360   0
226      -396406 440    0 440   0
229       324240 360  160 360   0
230      -383192 440    0 440   0
233       313059 360  160 360   0
234      -369979 440    0 440   0
237       301878 360  160 360   0
238      -356765 440    0 440   0
241       290698 360  160 360   0
242      -343552 440    0 440   0
245       279517 360  160 360   0
246      -330338 440    0 440   0
249       268336 360  160 360   0
250      -317125 440    0 440   0
253       257156 360  160 360   0
254      -303911 440    0 440   0
257       245975 360  160 360   0
258      -290698 440    0 440   0
261       234794 360  160 360   0
262      -277484 440    0 440   0
