# Pulseq sequence file
# Created by MATLAB mr toolbox

[VERSION]
major 1
minor 5
revision 1

[DEFINITIONS]
AdcRasterTime 1e-07 
BlockDurationRaster 1e-05 
FOV 0.192 0.256 0.256 
FlipAngle 7 
GradientRasterTime 1e-05 
NParts 5 
Nacs 32 
Name gre_witness_merged_calib_192x256x256_Nxos1024_Ncalib72x1_Nacs32_Ndummy300_Nsettle10_os4_amp8_cycles10_SAG_skyra 
Ncalib1 72 
Ncalib2 1 
Ndummy 300 
NsettlePerPart 10 
Nx 192 
Nx_os 1024 
Ny 256 
Nz 256 
OrientationMapping SAG 
Part0_IsACS 0 
Part0_KyPhysStart0 92 
Part0_KyPhysStop0 163 
Part0_KzPhysStart0 96 
Part0_KzPhysStop0 96 
Part0_Mode nowave 
Part0_NLinLocal 72 
Part0_NParLocal 1 
Part0_Name nowave_kywide_kznarrow 
Part0_SetID 0 
Part1_IsACS 0 
Part1_KyPhysStart0 92 
Part1_KyPhysStop0 163 
Part1_KzPhysStart0 96 
Part1_KzPhysStop0 96 
Part1_Mode sin 
Part1_NLinLocal 72 
Part1_NParLocal 1 
Part1_Name sin_kywide_kznarrow 
Part1_SetID 1 
Part2_IsACS 0 
Part2_KyPhysStart0 128 
Part2_KyPhysStop0 128 
Part2_KzPhysStart0 60 
Part2_KzPhysStop0 131 
Part2_Mode nowave 
Part2_NLinLocal 1 
Part2_NParLocal 72 
Part2_Name nowave_kzwide_kynarrow 
Part2_SetID 2 
Part3_IsACS 0 
Part3_KyPhysStart0 128 
Part3_KyPhysStop0 128 
Part3_KzPhysStart0 60 
Part3_KzPhysStop0 131 
Part3_Mode cos 
Part3_NLinLocal 1 
Part3_NParLocal 72 
Part3_Name cos_kzwide_kynarrow 
Part3_SetID 3 
Part4_IsACS 1 
Part4_KyPhysStart0 112 
Part4_KyPhysStop0 143 
Part4_KzPhysStart0 80 
Part4_KzPhysStop0 111 
Part4_Mode nowave 
Part4_NLinLocal 32 
Part4_NParLocal 32 
Part4_Name acs_nowave_center 
Part4_SetID 4 
RadiofrequencyRasterTime 1e-06 
ReadoutOversamplingFactor 4 
ReceiverGainHigh 1 
SliceThickness 0.001 
TE 0.0036325 
TR 0.00773 
TotalDuration 12.84873 
ro_os 4 

# Format of blocks:
# NUM DUR RF  GX  GY  GZ  ADC  EXT
[BLOCKS]
   1 167   1   0   0   0  0  0
   2 606   0 401 1235 1663  0  0
   3 167   2 402 1236 1662  0  0
   4 606   0 405 1235 1663  0  0
   5 167   3 406 1236 1662  0  0
   6 606   0 409 1235 1663  0  0
   7 167   4 410 1236 1662  0  0
   8 606   0 413 1235 1663  0  0
   9 167   5 414 1236 1662  0  0
  10 606   0 417 1235 1663  0  0
  11 167   6 418 1236 1662  0  0
  12 606   0 421 1235 1663  0  0
  13 167   7 422 1236 1662  0  0
  14 606   0 425 1235 1663  0  0
  15 167   8 426 1236 1662  0  0
  16 606   0 429 1235 1663  0  0
  17 167   1 430 1236 1662  0  0
  18 606   0 433 1235 1663  0  0
  19 167   9 434 1236 1662  0  0
  20 606   0 437 1235 1663  0  0
  21 167  10 438 1236 1662  0  0
  22 606   0 441 1235 1663  0  0
  23 167  11 442 1236 1662  0  0
  24 606   0 445 1235 1663  0  0
  25 167   4 446 1236 1662  0  0
  26 606   0 321 1239 1663  0  0
  27 167  10 322 1240 1662  0  0
  28 606   0 325 1239 1663  0  0
  29 167  12 326 1240 1662  0  0
  30 606   0 329 1239 1663  0  0
  31 167  13 330 1240 1662  0  0
  32 606   0 333 1239 1663  0  0
  33 167   8 334 1240 1662  0  0
  34 606   0 337 1239 1663  0  0
  35 167   9 338 1240 1662  0  0
  36 606   0 341 1239 1663  0  0
  37 167  14 342 1240 1662  0  0
  38 606   0 345 1239 1663  0  0
  39 167   5 346 1240 1662  0  0
  40 606   0 349 1239 1663  0  0
  41 167  11 350 1240 1662  0  0
  42 606   0 353 1239 1663  0  0
  43 167   6 354 1240 1662  0  0
  44 606   0 357 1239 1663  0  0
  45 167   2 358 1240 1662  0  0
  46 606   0 361 1239 1663  0  0
  47 167  15 362 1240 1662  0  0
  48 606   0 365 1239 1663  0  0
  49 167  13 366 1240 1662  0  0
  50 606   0 369 1239 1663  0  0
  51 167   2 370 1240 1662  0  0
  52 606   0 373 1239 1663  0  0
  53 167  14 374 1240 1662  0  0
  54 606   0 377 1239 1663  0  0
  55 167  16 378 1240 1662  0  0
  56 606   0 381 1239 1663  0  0
  57 167   5 382 1240 1662  0  0
  58 606   0 385 1239 1663  0  0
  59 167   3 386 1240 1662  0  0
  60 606   0 389 1239 1663  0  0
  61 167  12 390 1240 1662  0  0
  62 606   0 393 1239 1663  0  0
  63 167   8 394 1240 1662  0  0
  64 606   0 397 1239 1663  0  0
  65 167  15 398 1240 1662  0  0
  66 606   0 401 1239 1663  0  0
  67 167   7 402 1240 1662  0  0
  68 606   0 405 1239 1663  0  0
  69 167  10 406 1240 1662  0  0
  70 606   0 409 1239 1663  0  0
  71 167  16 410 1240 1662  0  0
  72 606   0 413 1239 1663  0  0
  73 167  16 414 1240 1662  0  0
  74 606   0 417 1239 1663  0  0
  75 167  10 418 1240 1662  0  0
  76 606   0 421 1239 1663  0  0
  77 167   7 422 1240 1662  0  0
  78 606   0 425 1239 1663  0  0
  79 167  15 426 1240 1662  0  0
  80 606   0 429 1239 1663  0  0
  81 167   8 430 1240 1662  0  0
  82 606   0 433 1239 1663  0  0
  83 167  12 434 1240 1662  0  0
  84 606   0 437 1239 1663  0  0
  85 167   3 438 1240 1662  0  0
  86 606   0 441 1239 1663  0  0
  87 167   5 442 1240 1662  0  0
  88 606   0 445 1239 1663  0  0
  89 167  16 446 1240 1662  0  0
  90 606   0 321 409 1663  0  0
  91 167  14 322 410 1662  0  0
  92 606   0 325 409 1663  0  0
  93 167   2 326 410 1662  0  0
  94 606   0 329 409 1663  0  0
  95 167  13 330 410 1662  0  0
  96 606   0 333 409 1663  0  0
  97 167  15 334 410 1662  0  0
  98 606   0 337 409 1663  0  0
  99 167   2 338 410 1662  0  0
 100 606   0 341 409 1663  0  0
 101 167   6 342 410 1662  0  0
 102 606   0 345 409 1663  0  0
 103 167  11 346 410 1662  0  0
 104 606   0 349 409 1663  0  0
 105 167   5 350 410 1662  0  0
 106 606   0 353 409 1663  0  0
 107 167  14 354 410 1662  0  0
 108 606   0 357 409 1663  0  0
 109 167   9 358 410 1662  0  0
 110 606   0 361 409 1663  0  0
 111 167   8 362 410 1662  0  0
 112 606   0 365 409 1663  0  0
 113 167  13 366 410 1662  0  0
 114 606   0 369 409 1663  0  0
 115 167  12 370 410 1662  0  0
 116 606   0 373 409 1663  0  0
 117 167  10 374 410 1662  0  0
 118 606   0 377 409 1663  0  0
 119 167   4 378 410 1662  0  0
 120 606   0 381 409 1663  0  0
 121 167  11 382 410 1662  0  0
 122 606   0 385 409 1663  0  0
 123 167  10 386 410 1662  0  0
 124 606   0 389 409 1663  0  0
 125 167   9 390 410 1662  0  0
 126 606   0 393 409 1663  0  0
 127 167   1 394 410 1662  0  0
 128 606   0 397 409 1663  0  0
 129 167   8 398 410 1662  0  0
 130 606   0 401 409 1663  0  0
 131 167   7 402 410 1662  0  0
 132 606   0 405 409 1663  0  0
 133 167   6 406 410 1662  0  0
 134 606   0 409 409 1663  0  0
 135 167   5 410 410 1662  0  0
 136 606   0 413 409 1663  0  0
 137 167   4 414 410 1662  0  0
 138 606   0 417 409 1663  0  0
 139 167   3 418 410 1662  0  0
 140 606   0 421 409 1663  0  0
 141 167   2 422 410 1662  0  0
 142 606   0 425 409 1663  0  0
 143 167   1 426 410 1662  0  0
 144 606   0 429 409 1663  0  0
 145 167   1 430 410 1662  0  0
 146 606   0 433 409 1663  0  0
 147 167   2 434 410 1662  0  0
 148 606   0 437 409 1663  0  0
 149 167   3 438 410 1662  0  0
 150 606   0 441 409 1663  0  0
 151 167   4 442 410 1662  0  0
 152 606   0 445 409 1663  0  0
 153 167   5 446 410 1662  0  0
 154 606   0 321 1245 1663  0  0
 155 167   6 322 1246 1662  0  0
 156 606   0 325 1245 1663  0  0
 157 167   7 326 1246 1662  0  0
 158 606   0 329 1245 1663  0  0
 159 167   8 330 1246 1662  0  0
 160 606   0 333 1245 1663  0  0
 161 167   1 334 1246 1662  0  0
 162 606   0 337 1245 1663  0  0
 163 167   9 338 1246 1662  0  0
 164 606   0 341 1245 1663  0  0
 165 167  10 342 1246 1662  0  0
 166 606   0 345 1245 1663  0  0
 167 167  11 346 1246 1662  0  0
 168 606   0 349 1245 1663  0  0
 169 167   4 350 1246 1662  0  0
 170 606   0 353 1245 1663  0  0
 171 167  10 354 1246 1662  0  0
 172 606   0 357 1245 1663  0  0
 173 167  12 358 1246 1662  0  0
 174 606   0 361 1245 1663  0  0
 175 167  13 362 1246 1662  0  0
 176 606   0 365 1245 1663  0  0
 177 167   8 366 1246 1662  0  0
 178 606   0 369 1245 1663  0  0
 179 167   9 370 1246 1662  0  0
 180 606   0 373 1245 1663  0  0
 181 167  14 374 1246 1662  0  0
 182 606   0 377 1245 1663  0  0
 183 167   5 378 1246 1662  0  0
 184 606   0 381 1245 1663  0  0
 185 167  11 382 1246 1662  0  0
 186 606   0 385 1245 1663  0  0
 187 167   6 386 1246 1662  0  0
 188 606   0 389 1245 1663  0  0
 189 167   2 390 1246 1662  0  0
 190 606   0 393 1245 1663  0  0
 191 167  15 394 1246 1662  0  0
 192 606   0 397 1245 1663  0  0
 193 167  13 398 1246 1662  0  0
 194 606   0 401 1245 1663  0  0
 195 167   2 402 1246 1662  0  0
 196 606   0 405 1245 1663  0  0
 197 167  14 406 1246 1662  0  0
 198 606   0 409 1245 1663  0  0
 199 167  16 410 1246 1662  0  0
 200 606   0 413 1245 1663  0  0
 201 167   5 414 1246 1662  0  0
 202 606   0 417 1245 1663  0  0
 203 167   3 418 1246 1662  0  0
 204 606   0 421 1245 1663  0  0
 205 167  12 422 1246 1662  0  0
 206 606   0 425 1245 1663  0  0
 207 167   8 426 1246 1662  0  0
 208 606   0 429 1245 1663  0  0
 209 167  15 430 1246 1662  0  0
 210 606   0 433 1245 1663  0  0
 211 167   7 434 1246 1662  0  0
 212 606   0 437 1245 1663  0  0
 213 167  10 438 1246 1662  0  0
 214 606   0 441 1245 1663  0  0
 215 167  16 442 1246 1662  0  0
 216 606   0 445 1245 1663  0  0
 217 167  16 446 1246 1662  0  0
 218 606   0 321 1249 1663  0  0
 219 167  10 322 1250 1662  0  0
 220 606   0 325 1249 1663  0  0
 221 167   7 326 1250 1662  0  0
 222 606   0 329 1249 1663  0  0
 223 167  15 330 1250 1662  0  0
 224 606   0 333 1249 1663  0  0
 225 167   8 334 1250 1662  0  0
 226 606   0 337 1249 1663  0  0
 227 167  12 338 1250 1662  0  0
 228 606   0 341 1249 1663  0  0
 229 167   3 342 1250 1662  0  0
 230 606   0 345 1249 1663  0  0
 231 167   5 346 1250 1662  0  0
 232 606   0 349 1249 1663  0  0
 233 167  16 350 1250 1662  0  0
 234 606   0 353 1249 1663  0  0
 235 167  14 354 1250 1662  0  0
 236 606   0 357 1249 1663  0  0
 237 167   2 358 1250 1662  0  0
 238 606   0 361 1249 1663  0  0
 239 167  13 362 1250 1662  0  0
 240 606   0 365 1249 1663  0  0
 241 167  15 366 1250 1662  0  0
 242 606   0 369 1249 1663  0  0
 243 167   2 370 1250 1662  0  0
 244 606   0 373 1249 1663  0  0
 245 167   6 374 1250 1662  0  0
 246 606   0 377 1249 1663  0  0
 247 167  11 378 1250 1662  0  0
 248 606   0 381 1249 1663  0  0
 249 167   5 382 1250 1662  0  0
 250 606   0 385 1249 1663  0  0
 251 167  14 386 1250 1662  0  0
[RF]
1      194.444 836 837 838 50 1470 0 0 0 0 e
2      194.444 836 837 838 50 1470 0 0 0 0.872665 e
3      194.444 836 837 838 50 1470 0 0 0 2.61799 e
4      194.444 836 837 838 50 1470 0 0 0 5.23599 e
5      194.444 836 837 838 50 1470 0 0 0 2.44346 e
6      194.444 836 837 838 50 1470 0 0 0 0.523599 e
7      194.444 836 837 838 50 1470 0 0 0 5.75959 e
8      194.444 836 837 838 50 1470 0 0 0 5.58505 e
9      194.444 836 837 838 50 1470 0 0 0 1.5708 e
10      194.444 836 837 838 50 1470 0 0 0 4.01426 e
11      194.444 836 837 838 50 1470 0 0 0 1.0472 e
12      194.444 836 837 838 50 1470 0 0 0 3.66519 e
13      194.444 836 837 838 50 1470 0 0 0 4.18879 e
14      194.444 836 837 838 50 1470 0 0 0 4.71239 e
15      194.444 836 837 838 50 1470 0 0 0 2.0944 e
16      194.444 836 837 838 50 1470 0 0 0 3.14159 e

# Format of arbitrary gradients:
#   time_shape_id of 0 means default timing (stepping with grad_raster starting at 1/2 of grad_raster)
# id amplitude first last amp_shape_id time_shape_id delay
# ..      Hz/m  Hz/m Hz/m        ..         ..          us
[GRADIENTS]
3       908560            0       340608 1 0 0
4  1.17094e+06       340608            0 2 3 0
7       897361            0       340608 4 0 0
8  1.17221e+06       340608            0 5 6 0
11       886161            0       340608 7 0 0
12  1.16199e+06       340608            0 8 6 0
15       874962            0       340608 9 0 0
16  1.16319e+06       340608            0 10 11 0
19       863763            0       340608 12 0 0
20  1.13823e+06       340608            0 13 14 0
23       852563            0       340608 15 0 0
24  1.13919e+06       340608            0 16 17 0
27       841364            0       340608 18 0 0
28  1.14016e+06       340608            0 19 20 0
31       830164            0       340608 21 0 0
32  1.14116e+06       340608            0 22 23 0
35       818965            0       340608 24 0 0
36  1.11592e+06       340608            0 25 26 0
39       807766            0       340608 27 0 0
40  1.11667e+06       340608            0 28 29 0
43       796566            0       340608 30 0 0
44  1.11744e+06       340608            0 31 32 0
47       785367            0       340608 33 0 0
48  1.09219e+06       340608            0 34 35 0
51       774167            0       340608 36 0 0
52   1.0927e+06       340608            0 37 38 0
55       762968            0       340608 39 0 0
56  1.09323e+06       340608            0 40 41 0
59       751769            0       340608 42 0 0
60  1.08249e+06       340608            0 43 44 0
63       740569            0       340608 45 0 0
64  1.08292e+06       340608            0 46 47 0
67       729370            0       340608 48 0 0
68  1.08335e+06       340608            0 49 50 0
71       718170            0       340608 51 0 0
72  1.05767e+06       340608            0 52 53 0
75       706971            0       340608 54 0 0
76  1.05784e+06       340608            0 55 56 0
79       695772            0       340608 57 0 0
80  1.05801e+06       340608            0 58 59 0
83       684572            0       340608 60 0 0
84  1.05818e+06       340608            0 61 62 0
87       673373            0       340608 63 0 0
88  1.03222e+06       340608            0 64 65 0
91       662174            0       340608 66 0 0
92  1.03212e+06       340608            0 67 68 0
95       650974            0       340608 69 0 0
96  1.03202e+06       340608            0 70 71 0
99       639775            0       340608 72 0 0
100  1.03191e+06       340608            0 73 74 0
103       628575            0       340608 75 0 0
104  1.00567e+06       340608            0 76 77 0
107       617376            0       340608 78 0 0
108  1.00527e+06       340608            0 79 80 0
111       606177            0       340608 81 0 0
112  1.00487e+06       340608            0 82 83 0
115       594977            0       340608 84 0 0
116  1.00445e+06       340608            0 85 86 0
119       583778            0       340608 87 0 0
120       977935       340608            0 88 89 0
123       572578            0       340608 90 0 0
124       977219       340608            0 91 92 0
127       561379            0       340608 93 0 0
128       976487       340608            0 94 95 0
131       550180            0       340608 96 0 0
132       975738       340608            0 97 98 0
135       538980            0       340608 99 0 0
136       959850       340608            0 100 101 0
139       527781            0       340608 102 0 0
140       958898       340608            0 103 104 0
143       516581            0       340608 105 0 0
144       931988       340608            0 106 107 0
147       505382            0       340608 108 0 0
148       930713       340608            0 109 110 0
151       494183            0       340608 111 0 0
152       929408       340608            0 112 113 0
155       482983            0       340608 114 0 0
156       928071       340608            0 115 116 0
159       471784            0       340608 117 0 0
160       926703       340608            0 118 119 0
163       460584            0       340608 120 0 0
164       899215       340608            0 121 122 0
167       449385            0       340608 123 0 0
168       897498       340608            0 124 125 0
171       438186            0       340608 126 0 0
172       880845       340608            0 127 128 0
175       426986            0       340608 129 0 0
176       878883       340608            0 130 131 0
179       415787            0       340608 132 0 0
180       876874       340608            0 133 134 0
183       404587            0       340608 135 0 0
184       874814       340608            0 136 137 0
187       393388            0       340608 138 0 0
188       872702       340608            0 139 140 0
191       382189            0       340608 141 0 0
192       844514       340608            0 142 143 0
195       370989            0       340608 144 0 0
196       852814       340608            0 145 146 0
199       359790            0       340608 147 0 0
200       824522       340608            0 148 149 0
203       348590            0       340608 150 0 0
204       821738       340608            0 151 152 0
207       340608            0       340608 153 0 0
208       818882       340608            0 154 155 0
211       340608            0       340608 156 0 0
212       800930       340608            0 157 158 0
215       340608            0       340608 159 0 0
216       797762       340608            0 160 161 0
219       340608            0       340608 162 0 0
220       794510       340608            0 163 164 0
223       340608            0       340608 165 0 0
224       791170       340608            0 166 167 0
227       340608            0       340608 168 0 0
228       772491       340608            0 169 170 0
231       340608            0       340608 171 0 0
232       768804       340608            0 172 173 0
235       340608            0       340608 174 0 0
236       765014       340608            0 175 176 0
239       340608            0       340608 177 0 0
240       745816       340608            0 178 179 0
243       340608            0       340608 180 0 0
244       741649       340608            0 181 182 0
247       340608            0       340608 183 0 0
248       737363       340608            0 184 185 0
251       340608            0       340608 186 0 0
252       717616       340608            0 187 188 0
255       340608            0       340608 189 0 0
256       712920       340608            0 190 191 0
259       340608            0       340608 192 0 0
260       692887       340608            0 193 194 0
263       340608            0       340608 195 0 0
264       687757       340608            0 196 197 0
267       340608            0       340608 198 0 0
268       692816       340608            0 199 200 0
271       340608            0       340608 201 0 0
272       687449       340608            0 202 203 0
275       340608            0       340608 204 0 0
276       666183       340608            0 205 206 0
279       340608            0       340608 207 0 0
280       660316       340608            0 208 209 0
283       340608            0       340608 210 0 0
284       638718       340608            0 211 212 0
287       340608            0       340608 213 0 0
288       632322       340608            0 214 215 0
291       340608            0       340608 216 0 0
292       635977       340608            0 217 218 0
295       340608            0       340608 219 0 0
296       613317       340608            0 220 221 0
299       340608            0       340608 222 0 0
300       606178       340608            0 223 224 0
303       340608            0       340608 225 0 0
304       583140       340608            0 226 227 0
307       340608            0       340608 228 0 0
308       585289       340608            0 229 230 0
311       340608            0       340608 231 0 0
312       561456       340608            0 232 233 0
315       340608            0       340608 234 0 0
316       553032       340608            0 235 236 0
319       340608            0       340608 237 0 0
320       554202       340608            0 238 239 0
323       340608            0       340608 240 0 0
324       529070       340608            0 241 242 0
327      -340608            0       340608 243 0 0
328       529381       340608            0 244 245 0
331      -340608            0       340608 246 0 0
332       503300       340608            0 247 248 0
335      -340608            0       340608 249 0 0
336       502613       340608            0 250 251 0
339      -340608            0       340608 252 0 0
340       475509       340608            0 253 254 0
343      -340608            0       340608 255 0 0
344       473659       340608            0 256 257 0
347      -340608            0       340608 258 0 0
348       454730       340608            0 259 260 0
351      -340608            0       340608 261 0 0
352       425932       340608            0 262 263 0
355      -340608            0       340608 264 0 0
356       421806       340608            0 265 266 0
359      -340608            0       340608 267 0 0
360       400463       340608            0 268 269 0
363      -340608            0       340608 270 0 0
364       394864       340608            0 271 272 0
367      -340608            0       340608 273 0 0
368       371354       340608            0 274 275 0
371      -340608            0       340608 276 0 0
372       346698       340608            0 277 278 0
375      -340608            0       340608 279 0 0
376       340608       340608            0 280 281 0
379      -340608            0       340608 282 0 0
380       340608       340608            0 283 284 0
383      -340608            0       340608 285 0 0
384       340608       340608            0 286 287 0
387      -340608            0       340608 288 0 0
388       340608       340608            0 289 290 0
391      -340608            0       340608 291 0 0
392       340608       340608            0 292 293 0
395      -340608            0       340608 294 0 0
396       340608       340608            0 295 296 0
399      -340608            0       340608 297 0 0
400       340608       340608            0 298 299 0
403      -340608            0       340608 300 0 0
404       340608       340608            0 301 302 0
407      -340608            0       340608 303 0 0
408       340608       340608            0 304 305 0
411      -340608            0       340608 306 0 0
412       340608       340608            0 307 308 0
415      -340608            0       340608 309 0 0
416       340608       340608            0 310 311 0
419      -340608            0       340608 312 0 0
420       340608       340608            0 313 314 0
423      -340608            0       340608 315 0 0
424       397836       340608            0 316 317 0
427      -340608            0       340608 318 0 0
428       342014       340608            0 319 320 0
431      -340608            0       340608 321 0 0
432       391550       340608            0 322 323 0
435      -340608            0       340608 324 0 0
436       421101       340608            0 325 326 0
439      -340608            0       340608 327 0 0
440       448082       340608            0 328 329 0
443      -340608            0       340608 330 0 0
444       449545       340608            0 331 332 0
447      -340608            0       340608 333 0 0
448       476509       340608            0 334 335 0
451      -349474            0       340608 336 0 0
452       503472       340608            0 337 338 0
455      -360674            0       340608 339 0 0
456       523406       340608            0 340 341 0
459      -371873            0       340608 342 0 0
460       529750       340608            0 343 344 0
463      -383072            0       340608 345 0 0
464       529156       340608            0 346 347 0
467      -394272            0       340608 348 0 0
468       552524       340608            0 349 350 0
471      -405471            0       340608 351 0 0
472       557316       340608            0 352 353 0
475      -416671            0       340608 354 0 0
476       555105       340608            0 355 356 0
479      -427870            0       340608 357 0 0
480       553146       340608            0 358 359 0
483      -439069            0       340608 360 0 0
484       557255       340608            0 361 362 0
487      -450269            0       340608 363 0 0
488       583475       340608            0 364 365 0
491      -461468            0       340608 366 0 0
492       632700       340608            0 367 368 0
495      -472668            0       340608 369 0 0
496       634599       340608            0 370 371 0
499      -483867            0       340608 372 0 0
500       636396       340608            0 373 374 0
503      -495066            0       340608 375 0 0
504       630469       340608            0 376 377 0
507      -506266            0       340608 378 0 0
508       632234       340608            0 379 380 0
511      -517465            0       340608 381 0 0
512       683888       340608            0 382 383 0
515      -528664            0       340608 384 0 0
516       684317       340608            0 385 386 0
519      -539864            0       340608 387 0 0
520       684726       340608            0 388 389 0
523      -551063            0       340608 390 0 0
524       661714       340608            0 391 392 0
527      -562263            0       340608 393 0 0
528       709249       340608            0 394 395 0
531      -573462            0       340608 396 0 0
532       709063       340608            0 397 398 0
535      -584661            0       340608 399 0 0
536       708885       340608            0 400 401 0
539      -595861            0       340608 402 0 0
540       716895       340608            0 403 404 0
543      -607060            0       340608 405 0 0
544       738764       340608            0 406 407 0
547      -618260            0       340608 408 0 0
548       737962       340608            0 409 410 0
551      -629459            0       340608 411 0 0
552       737193       340608            0 412 413 0
555      -640658            0       340608 414 0 0
556       765990       340608            0 415 416 0
559      -651858            0       340608 417 0 0
560       764665       340608            0 418 419 0
563      -663057            0       340608 420 0 0
564       763393       340608            0 421 422 0
567      -674257            0       340608 423 0 0
568       791039       340608            0 424 425 0
571      -685456            0       340608 426 0 0
572       789274       340608            0 427 428 0
575      -696655            0       340608 429 0 0
576       816378       340608            0 430 431 0
579      -707855            0       340608 432 0 0
580       814160       340608            0 433 434 0
583      -719054            0       340608 435 0 0
584       821092       340608            0 436 437 0
587      -730254            0       340608 438 0 0
588       847674       340608            0 439 440 0
591      -741453            0       340608 441 0 0
592       844908       340608            0 442 443 0
595      -752652            0       340608 444 0 0
596       870988       340608            0 445 446 0
599      -763852            0       340608 447 0 0
600       867841       340608            0 448 449 0
603      -775051            0       340608 450 0 0
604       849366       340608            0 451 452 0
607      -786251            0       340608 453 0 0
608       874049       340608            0 454 455 0
611      -797450            0       340608 456 0 0
612       871015       340608            0 457 458 0
615      -808649            0       340608 459 0 0
616       895265       340608            0 460 461 0
619      -819849            0       340608 462 0 0
620       901589       340608            0 463 464 0
623      -831048            0       340608 465 0 0
624       898131       340608            0 466 467 0
627      -842247            0       340608 468 0 0
628       921964       340608            0 469 470 0
631      -853447            0       340608 471 0 0
632       918219       340608            0 472 473 0
635      -864646            0       340608 474 0 0
636       925954       340608            0 475 476 0
639      -875846            0       340608 477 0 0
640       922267       340608            0 478 479 0
643      -887045            0       340608 480 0 0
644       954999       340608            0 481 482 0
647      -898244            0       340608 483 0 0
648       950836       340608            0 484 485 0
651      -909444            0       340608 486 0 0
652       973496       340608            0 487 488 0
655      -920643            0       340608 489 0 0
656       953720       340608            0 490 491 0
659      -931843            0       340608 492 0 0
660       975661       340608            0 493 494 0
663      -943042            0       340608 495 0 0
664       981382       340608            0 496 497 0
667      -954241            0       340608 498 0 0
668  1.00332e+06       340608            0 499 500 0
671      -965441            0       340608 501 0 0
672       998600       340608            0 502 503 0
675      -976640            0       340608 504 0 0
676       978961       340608            0 505 506 0
679      -987840            0       340608 507 0 0
680       999905       340608            0 508 509 0
683      -999039            0       340608 510 0 0
684  1.00537e+06       340608            0 511 512 0
687 -1.01024e+06            0       340608 513 0 0
688  1.02631e+06       340608            0 514 515 0
691 -1.02144e+06            0       340608 516 0 0
692  1.00643e+06       340608            0 517 518 0
695 -1.03264e+06            0       340608 519 0 0
696  1.02676e+06       340608            0 520 521 0
699 -1.04384e+06            0       340608 522 0 0
700  1.03206e+06       340608            0 523 524 0
703 -1.05504e+06            0       340608 525 0 0
704  1.05239e+06       340608            0 526 527 0
707 -1.06624e+06            0       340608 528 0 0
708  1.05717e+06       340608            0 529 530 0
711 -1.07743e+06            0       340608 531 0 0
712  1.05208e+06       340608            0 532 533 0
715 -1.08863e+06            0       340608 534 0 0
716  1.08243e+06       340608            0 535 536 0
719 -1.09983e+06            0       340608 537 0 0
720  1.06181e+06       340608            0 538 539 0
723 -1.11103e+06            0       340608 540 0 0
724  1.08128e+06       340608            0 541 542 0
727 -1.12223e+06            0       340608 543 0 0
728  1.08636e+06       340608            0 544 545 0
731 -1.13343e+06            0       340608 546 0 0
732  1.10582e+06       340608            0 547 548 0
