# Pulseq sequence file
# Created by MATLAB mr toolbox

[VERSION]
major 1
minor 4
revision 1

[DEFINITIONS]
AdcRasterTime 1e-07 
BlockDurationRaster 1e-05 
FOV 0.22 0.22 0.256 
FlipAngle 15 
GradientRasterTime 1e-05 
NParts 5 
Nacs 32 
Name gre_witness_merged_calib_250x250x72_Nxos1000_Ncalib72x1_Nacs32_Ndummy300_Nsettle10_os4_amp8_cycles10_TRA_prisma 
Ncalib1 72 
Ncalib2 1 
Ndummy 300 
NsettlePerPart 10 
Nx 250 
Nx_os 1000 
Ny 250 
Nz 72 
OrientationMapping TRA 
Part0_IsACS 0 
Part0_KyPhysStart0 89 
Part0_KyPhysStop0 160 
Part0_KzPhysStart0 36 
Part0_KzPhysStop0 36 
Part0_Mode nowave 
Part0_NLinLocal 72 
Part0_NParLocal 1 
Part0_Name nowave_kywide_kznarrow 
Part0_SetID 0 
Part1_IsACS 0 
Part1_KyPhysStart0 89 
Part1_KyPhysStop0 160 
Part1_KzPhysStart0 36 
Part1_KzPhysStop0 36 
Part1_Mode sin 
Part1_NLinLocal 72 
Part1_NParLocal 1 
Part1_Name sin_kywide_kznarrow 
Part1_SetID 1 
Part2_IsACS 0 
Part2_KyPhysStart0 125 
Part2_KyPhysStop0 125 
Part2_KzPhysStart0 0 
Part2_KzPhysStop0 71 
Part2_Mode nowave 
Part2_NLinLocal 1 
Part2_NParLocal 72 
Part2_Name nowave_kzwide_kynarrow 
Part2_SetID 2 
Part3_IsACS 0 
Part3_KyPhysStart0 125 
Part3_KyPhysStop0 125 
Part3_KzPhysStart0 0 
Part3_KzPhysStop0 71 
Part3_Mode cos 
Part3_NLinLocal 1 
Part3_NParLocal 72 
Part3_Name cos_kzwide_kynarrow 
Part3_SetID 3 
Part4_IsACS 1 
Part4_KyPhysStart0 109 
Part4_KyPhysStop0 140 
Part4_KzPhysStart0 20 
Part4_KzPhysStop0 51 
Part4_Mode nowave 
Part4_NLinLocal 32 
Part4_NParLocal 32 
Part4_Name acs_nowave_center 
Part4_SetID 4 
RadiofrequencyRasterTime 1e-06 
ReadoutOversamplingFactor 4 
ReceiverGainHigh 1 
SliceThickness 0.00355555556 
TE 0.0035325 
TR 0.00746 
TotalDuration 12.39988 
ro_os 4 

# Format of blocks:
# NUM DUR RF  GX  GY  GZ  ADC  EXT
[BLOCKS]
   1 156   1   0   0   0  0  0
   2 590   0 1279 807 161  0  0
   3 156   2 1278 808 162  0  0
   4 590   0 1279 807 165  0  0
   5 156   3 1278 808 166  0  0
   6 590   0 1279 807 169  0  0
   7 156   4 1278 808 170  0  0
   8 590   0 1279 807 173  0  0
   9 156   5 1278 808 174  0  0
  10 590   0 1279 807 177  0  0
  11 156   6 1278 808 178  0  0
  12 590   0 1279 807 181  0  0
  13 156   7 1278 808 182  0  0
  14 590   0 1279 807 185  0  0
  15 156   8 1278 808 186  0  0
  16 590   0 1279 807 189  0  0
  17 156   1 1278 808 190  0  0
  18 590   0 1279 807 193  0  0
  19 156   9 1278 808 194  0  0
  20 590   0 1279 807 197  0  0
  21 156  10 1278 808 198  0  0
  22 590   0 1279 807 201  0  0
  23 156  11 1278 808 202  0  0
  24 590   0 1279 807 205  0  0
  25 156   4 1278 808 206  0  0
  26 590   0 1279 811  81  0  0
  27 156  10 1278 812  82  0  0
  28 590   0 1279 811  85  0  0
  29 156  12 1278 812  86  0  0
  30 590   0 1279 811  89  0  0
  31 156  13 1278 812  90  0  0
  32 590   0 1279 811  93  0  0
  33 156   8 1278 812  94  0  0
  34 590   0 1279 811  97  0  0
  35 156   9 1278 812  98  0  0
  36 590   0 1279 811 101  0  0
  37 156  14 1278 812 102  0  0
  38 590   0 1279 811 105  0  0
  39 156   5 1278 812 106  0  0
  40 590   0 1279 811 109  0  0
  41 156  11 1278 812 110  0  0
  42 590   0 1279 811 113  0  0
  43 156   6 1278 812 114  0  0
  44 590   0 1279 811 117  0  0
  45 156   2 1278 812 118  0  0
  46 590   0 1279 811 121  0  0
  47 156  15 1278 812 122  0  0
  48 590   0 1279 811 125  0  0
  49 156  13 1278 812 126  0  0
  50 590   0 1279 811 129  0  0
  51 156   2 1278 812 130  0  0
  52 590   0 1279 811 133  0  0
  53 156  14 1278 812 134  0  0
  54 590   0 1279 811 137  0  0
  55 156  16 1278 812 138  0  0
  56 590   0 1279 811 141  0  0
  57 156   5 1278 812 142  0  0
  58 590   0 1279 811 145  0  0
  59 156   3 1278 812 146  0  0
  60 590   0 1279 811 149  0  0
  61 156  12 1278 812 150  0  0
  62 590   0 1279 811 153  0  0
  63 156   8 1278 812 154  0  0
  64 590   0 1279 811 157  0  0
  65 156  15 1278 812 158  0  0
  66 590   0 1279 811 161  0  0
  67 156   7 1278 812 162  0  0
  68 590   0 1279 811 165  0  0
  69 156  10 1278 812 166  0  0
  70 590   0 1279 811 169  0  0
  71 156  16 1278 812 170  0  0
  72 590   0 1279 811 173  0  0
  73 156  16 1278 812 174  0  0
  74 590   0 1279 811 177  0  0
  75 156  10 1278 812 178  0  0
  76 590   0 1279 811 181  0  0
  77 156   7 1278 812 182  0  0
  78 590   0 1279 811 185  0  0
  79 156  15 1278 812 186  0  0
  80 590   0 1279 811 189  0  0
  81 156   8 1278 812 190  0  0
  82 590   0 1279 811 193  0  0
  83 156  12 1278 812 194  0  0
  84 590   0 1279 811 197  0  0
  85 156   3 1278 812 198  0  0
  86 590   0 1279 811 201  0  0
  87 156   5 1278 812 202  0  0
  88 590   0 1279 811 205  0  0
  89 156  16 1278 812 206  0  0
  90 590   0 1279 815  81  0  0
  91 156  14 1278 816  82  0  0
  92 590   0 1279 815  85  0  0
  93 156   2 1278 816  86  0  0
  94 590   0 1279 815  89  0  0
  95 156  13 1278 816  90  0  0
  96 590   0 1279 815  93  0  0
  97 156  15 1278 816  94  0  0
  98 590   0 1279 815  97  0  0
  99 156   2 1278 816  98  0  0
 100 590   0 1279 815 101  0  0
 101 156   6 1278 816 102  0  0
 102 590   0 1279 815 105  0  0
 103 156  11 1278 816 106  0  0
 104 590   0 1279 815 109  0  0
 105 156   5 1278 816 110  0  0
 106 590   0 1279 815 113  0  0
 107 156  14 1278 816 114  0  0
 108 590   0 1279 815 117  0  0
 109 156   9 1278 816 118  0  0
 110 590   0 1279 815 121  0  0
 111 156   8 1278 816 122  0  0
 112 590   0 1279 815 125  0  0
 113 156  13 1278 816 126  0  0
 114 590   0 1279 815 129  0  0
 115 156  12 1278 816 130  0  0
 116 590   0 1279 815 133  0  0
 117 156  10 1278 816 134  0  0
 118 590   0 1279 815 137  0  0
 119 156   4 1278 816 138  0  0
 120 590   0 1279 815 141  0  0
 121 156  11 1278 816 142  0  0
 122 590   0 1279 815 145  0  0
 123 156  10 1278 816 146  0  0
 124 590   0 1279 815 149  0  0
 125 156   9 1278 816 150  0  0
 126 590   0 1279 815 153  0  0
 127 156   1 1278 816 154  0  0
 128 590   0 1279 815 157  0  0
 129 156   8 1278 816 158  0  0
 130 590   0 1279 815 161  0  0
 131 156   7 1278 816 162  0  0
 132 590   0 1279 815 165  0  0
 133 156   6 1278 816 166  0  0
 134 590   0 1279 815 169  0  0
 135 156   5 1278 816 170  0  0
 136 590   0 1279 815 173  0  0
 137 156   4 1278 816 174  0  0
 138 590   0 1279 815 177  0  0
 139 156   3 1278 816 178  0  0
 140 590   0 1279 815 181  0  0
 141 156   2 1278 816 182  0  0
 142 590   0 1279 815 185  0  0
 143 156   1 1278 816 186  0  0
 144 590   0 1279 815 189  0  0
 145 156   1 1278 816 190  0  0
 146 590   0 1279 815 193  0  0
 147 156   2 1278 816 194  0  0
 148 590   0 1279 815 197  0  0
 149 156   3 1278 816 198  0  0
 150 590   0 1279 815 201  0  0
 151 156   4 1278 816 202  0  0
 152 590   0 1279 815 205  0  0
 153 156   5 1278 816 206  0  0
 154 590   0 1279 819  81  0  0
 155 156   6 1278 820  82  0  0
 156 590   0 1279 819  85  0  0
 157 156   7 1278 820  86  0  0
 158 590   0 1279 819  89  0  0
 159 156   8 1278 820  90  0  0
 160 590   0 1279 819  93  0  0
 161 156   1 1278 820  94  0  0
 162 590   0 1279 819  97  0  0
 163 156   9 1278 820  98  0  0
 164 590   0 1279 819 101  0  0
 165 156  10 1278 820 102  0  0
 166 590   0 1279 819 105  0  0
 167 156  11 1278 820 106  0  0
 168 590   0 1279 819 109  0  0
 169 156   4 1278 820 110  0  0
 170 590   0 1279 819 113  0  0
 171 156  10 1278 820 114  0  0
 172 590   0 1279 819 117  0  0
 173 156  12 1278 820 118  0  0
 174 590   0 1279 819 121  0  0
 175 156  13 1278 820 122  0  0
 176 590   0 1279 819 125  0  0
 177 156   8 1278 820 126  0  0
 178 590   0 1279 819 129  0  0
 179 156   9 1278 820 130  0  0
 180 590   0 1279 819 133  0  0
 181 156  14 1278 820 134  0  0
 182 590   0 1279 819 137  0  0
 183 156   5 1278 820 138  0  0
 184 590   0 1279 819 141  0  0
 185 156  11 1278 820 142  0  0
 186 590   0 1279 819 145  0  0
 187 156   6 1278 820 146  0  0
 188 590   0 1279 819 149  0  0
 189 156   2 1278 820 150  0  0
 190 590   0 1279 819 153  0  0
 191 156  15 1278 820 154  0  0
 192 590   0 1279 819 157  0  0
 193 156  13 1278 820 158  0  0
 194 590   0 1279 819 161  0  0
 195 156   2 1278 820 162  0  0
 196 590   0 1279 819 165  0  0
 197 156  14 1278 820 166  0  0
 198 590   0 1279 819 169  0  0
 199 156  16 1278 820 170  0  0
 200 590   0 1279 819 173  0  0
 201 156   5 1278 820 174  0  0
 202 590   0 1279 819 177  0  0
 203 156   3 1278 820 178  0  0
 204 590   0 1279 819 181  0  0
 205 156  12 1278 820 182  0  0
 206 590   0 1279 819 185  0  0
 207 156   8 1278 820 186  0  0
 208 590   0 1279 819 189  0  0
 209 156  15 1278 820 190  0  0
 210 590   0 1279 819 193  0  0
 211 156   7 1278 820 194  0  0
 212 590   0 1279 819 197  0  0
 213 156  10 1278 820 198  0  0
 214 590   0 1279 819 201  0  0
 215 156  16 1278 820 202  0  0
 216 590   0 1279 819 205  0  0
 217 156  16 1278 820 206  0  0
 218 590   0 1279 823  81  0  0
 219 156  10 1278 824  82  0  0
 220 590   0 1279 823  85  0  0
 221 156   7 1278 824  86  0  0
 222 590   0 1279 823  89  0  0
 223 156  15 1278 824  90  0  0
 224 590   0 1279 823  93  0  0
 225 156   8 1278 824  94  0  0
 226 590   0 1279 823  97  0  0
 227 156  12 1278 824  98  0  0
 228 590   0 1279 823 101  0  0
 229 156   3 1278 824 102  0  0
 230 590   0 1279 823 105  0  0
 231 156   5 1278 824 106  0  0
 232 590   0 1279 823 109  0  0
 233 156  16 1278 824 110  0  0
 234 590   0 1279 823 113  0  0
 235 156  14 1278 824 114  0  0
 236 590   0 1279 823 117  0  0
 237 156   2 1278 824 118  0  0
 238 590   0 1279 823 121  0  0
 239 156  13 1278 824 122  0  0
 240 590   0 1279 823 125  0  0
 241 156  15 1278 824 126  0  0
 242 590   0 1279 823 129  0  0
 243 156   2 1278 824 130  0  0
 244 590   0 1279 823 133  0  0
 245 156   6 1278 824 134  0  0
 246 590   0 1279 823 137  0  0
 247 156  11 1278 824 138  0  0
 248 590   0 1279 823 141  0  0
 249 156   5 1278 824 142  0  0
 250 590   0 1279 823 145  0  0
 251 156  14 1278 824 146  0  0
 252 590   0 1279 823 149  0  0
 253 156   9 1278 824 150  0  0
 254 590   0 1279 823 153  0  0
 255 156   8 1278 824 154  0  0
 256 590   0 1279 823 157  0  0
 257 156  13 1278 824 158  0  0
[RF]
1      416.667 471 472 473 1360 0 0
2      416.667 471 472 473 1360 0 0.872665
3      416.667 471 472 473 1360 0 2.61799
4      416.667 471 472 473 1360 0 5.23599
5      416.667 471 472 473 1360 0 2.44346
6      416.667 471 472 473 1360 0 0.523599
7      416.667 471 472 473 1360 0 5.75959
8      416.667 471 472 473 1360 0 5.58505
9      416.667 471 472 473 1360 0 1.5708
10      416.667 471 472 473 1360 0 4.01426
11      416.667 471 472 473 1360 0 1.0472
12      416.667 471 472 473 1360 0 3.66519
13      416.667 471 472 473 1360 0 4.18879
14      416.667 471 472 473 1360 0 4.71239
15      416.667 471 472 473 1360 0 2.0944
16      416.667 471 472 473 1360 0 3.14159

# Format of arbitrary gradients:
#   time_shape_id of 0 means default timing (stepping with grad_raster starting at 1/2 of grad_raster)
# id amplitude amp_shape_id time_shape_id delay
# ..      Hz/m       ..         ..          us
[GRADIENTS]
3       340608 1 0 0
4       731211 2 3 0
7       340608 4 0 0
8       730284 5 6 0
11       340608 7 0 0
12       696609 8 9 0
15       340608 10 0 0
16       695041 11 12 0
19       340608 13 0 0
20       693415 14 15 0
23       340608 16 0 0
24       691725 17 18 0
27       340608 19 0 0
28       670151 20 21 0
31       340608 22 0 0
32       667973 23 24 0
35       340608 25 0 0
36       665707 26 27 0
39       340608 28 0 0
40       630657 29 30 0
43       340608 31 0 0
44       627645 32 33 0
47       340608 34 0 0
48       624510 35 36 0
51       340608 37 0 0
52       601615 38 39 0
55       340608 40 0 0
56       597873 41 42 0
59       340608 43 0 0
60       593971 44 45 0
63       340608 46 0 0
64       589900 47 48 0
67       340608 49 0 0
68       565512 50 51 0
71      -340608 52 0 0
72       560718 53 54 0
75      -340608 55 0 0
76       535787 56 57 0
79      -340608 58 0 0
80       530209 59 60 0
83      -340608 61 0 0
84       524371 62 63 0
87      -340608 64 0 0
88       498281 65 66 0
91      -340608 67 0 0
92       491544 68 69 0
95      -340608 70 0 0
96       496589 71 72 0
99      -340608 73 0 0
100       468543 74 75 0
103      -340608 76 0 0
104       460525 77 78 0
107      -340608 79 0 0
108       431759 80 81 0
111      -340608 82 0 0
112       433983 83 84 0
115      -340608 85 0 0
116       424336 86 87 0
119      -340608 88 0 0
120       393174 89 90 0
123      -340608 91 0 0
124       393324 92 93 0
127      -340608 94 0 0
128       360328 95 96 0
131      -340608 97 0 0
132       358434 98 99 0
135      -340608 100 0 0
136       340608 101 102 0
139      -340608 103 0 0
140       340608 104 105 0
143      -340608 106 0 0
144       340608 107 108 0
147      -340608 109 0 0
148       340608 110 111 0
151      -340608 112 0 0
152       340608 113 114 0
155      -340608 115 0 0
156       340608 116 117 0
159      -340608 118 0 0
160       340608 119 120 0
163      -340608 121 0 0
164       340608 122 123 0
167      -340608 124 0 0
168       340608 125 126 0
171      -340608 127 0 0
172       340608 128 129 0
175      -340608 130 0 0
176       340608 131 132 0
179      -340608 133 0 0
180       340608 134 135 0
183      -340608 136 0 0
184       344093 137 138 0
187      -340608 139 0 0
188       350529 140 141 0
191      -340608 142 0 0
192       340608 143 144 0
195      -340608 145 0 0
196       361131 146 147 0
199      -340608 148 0 0
200       365548 149 150 0
203      -340608 151 0 0
204       465719 152 153 0
207      -340608 154 0 0
208       436390 155 156 0
211      -340608 157 0 0
212       436583 158 159 0
215      -340608 160 0 0
216       436760 161 162 0
219      -340608 163 0 0
220       436922 164 165 0
223      -340608 166 0 0
224       504695 167 168 0
227      -345821 169 0 0
228       502026 170 171 0
231      -354598 172 0 0
232       499570 173 174 0
235      -363375 175 0 0
236       567130 176 177 0
239      -372152 178 0 0
240       562070 179 180 0
243      -380929 181 0 0
244       536756 182 183 0
247      -389706 184 0 0
248       600548 185 186 0
251      -398483 187 0 0
252       594626 188 189 0
255      -407260 190 0 0
256       568812 191 192 0
259      -416037 193 0 0
260       629193 194 195 0
263      -424814 196 0 0
264       601935 197 198 0
267      -433591 199 0 0
268       639330 200 201 0
271      -442368 202 0 0
272       632921 203 204 0
275      -451145 205 0 0
276       636148 206 207 0
279      -459922 208 0 0
280       672337 209 210 0
283      -468699 211 0 0
284       665096 212 213 0
287      -477475 214 0 0
288       700154 215 216 0
291  1.11408e+06 217 0 0
294  1.10517e+06 218 0 0
297  1.09626e+06 219 0 0
300  1.08734e+06 220 0 0
303  1.07843e+06 221 0 0
306  1.06952e+06 222 0 0
309  1.06061e+06 223 0 0
313  1.05169e+06 224 0 0
317  1.04278e+06 225 0 0
321  1.03387e+06 226 0 0
325  1.02496e+06 227 0 0
329  1.01604e+06 228 0 0
333  1.00713e+06 229 0 0
337       998217 230 0 0
341       989305 231 0 0
345       980392 232 0 0
349       971480 233 0 0
353       962567 234 0 0
357       953654 235 0 0
361       944742 236 0 0
365       935829 237 0 0
369       926916 238 0 0
373       918004 239 0 0
377       909091 240 0 0
381       900178 241 0 0
385       891266 242 0 0
389       882353 243 0 0
393       873440 244 0 0
397       864528 245 0 0
401       855615 246 0 0
405       846702 247 0 0
409       837790 248 0 0
413       828877 249 0 0
417       819964 250 0 0
421       811052 251 0 0
425       802139 252 0 0
429       793226 253 0 0
433       784314 254 0 0
437       775401 255 0 0
441       766488 256 0 0
445       757576 257 0 0
449       748663 258 0 0
453       739750 259 0 0
457       730838 260 0 0
461       721925 261 0 0
465       713012 262 0 0
469       704100 263 0 0
473       695187 264 0 0
477       686275 265 0 0
481       677362 266 0 0
485       668449 267 0 0
489       659537 268 0 0
493       650624 269 0 0
497       641711 270 0 0
501       632799 271 0 0
505       623886 272 0 0
509       614973 273 0 0
513       606061 274 0 0
517       597148 275 0 0
521       588235 276 0 0
525       579323 277 0 0
529       570410 278 0 0
533       561497 279 0 0
537       552585 280 0 0
541       543672 281 0 0
545       534759 282 0 0
549       525847 283 0 0
553       516934 284 0 0
557       508021 285 0 0
561       499109 286 0 0
565       490196 287 0 0
569       481283 288 0 0
573       472371 289 0 0
577       463458 290 0 0
581       454545 291 0 0
585       445633 292 0 0
589       436720 293 0 0
593       427807 294 0 0
597       418895 295 0 0
601       409982 296 0 0
605       401070 297 0 0
609       392157 298 0 0
613       383244 299 0 0
617       374332 300 0 0
621       365419 301 0 0
625       356506 302 0 0
629       347594 303 0 0
633       339936 304 0 0
637       339936 305 0 0
641       339936 306 0 0
645       339936 307 0 0
649       339936 308 0 0
653       339936 309 0 0
657       339936 310 0 0
661       339936 311 0 0
665       339936 312 0 0
669       339936 313 0 0
673       339936 314 0 0
677       339936 315 0 0
681       339936 316 0 0
685       339936 317 0 0
689       339936 318 0 0
693       339936 319 0 0
697       339936 320 0 0
701       339936 321 0 0
705       339936 322 0 0
709       339936 323 0 0
713       339936 324 0 0
717       339936 325 0 0
721       339936 326 0 0
725       339936 327 0 0
729       339936 328 0 0
733       339936 329 0 0
737       339936 330 0 0
741       339936 331 0 0
745       339936 332 0 0
749       339936 333 0 0
753       339936 334 0 0
757       339936 335 0 0
761       339936 336 0 0
765       339936 337 0 0
769       339936 338 0 0
773       339936 339 0 0
777       339936 340 0 0
781       339936 341 0 0
785       339936 342 0 0
789      -339936 343 0 0
793      -339936 344 0 0
797      -339936 345 0 0
801      -339936 346 0 0
805      -339936 347 0 0
809      -339936 348 0 0
813      -339936 349 0 0
817      -339936 350 0 0
821      -339936 351 0 0
825      -339936 352 0 0
829      -339936 353 0 0
833      -339936 354 0 0
837      -339936 355 0 0
841      -339936 356 0 0
845      -339936 357 0 0
849      -339936 358 0 0
853      -339936 359 0 0
857      -339936 360 0 0
861      -339936 361 0 0
865      -339936 362 0 0
869      -339936 363 0 0
873      -339936 364 0 0
877      -339936 365 0 0
881      -339936 366 0 0
885      -339936 367 0 0
889      -339936 368 0 0
893      -339936 369 0 0
897      -339936 370 0 0
901      -339936 371 0 0
905      -339936 372 0 0
909      -339936 373 0 0
913      -339936 374 0 0
917      -339936 375 0 0
921      -339936 376 0 0
925      -339936 377 0 0
929      -339936 378 0 0
933      -339936 379 0 0
937      -339936 380 0 0
941      -347594 381 0 0
945      -356506 382 0 0
949      -365419 383 0 0
953      -374332 384 0 0
957      -383244 385 0 0
961      -392157 386 0 0
965      -401070 387 0 0
969      -409982 388 0 0
973      -418895 389 0 0
977      -427807 390 0 0
981      -436720 391 0 0
985      -445633 392 0 0
989      -454545 393 0 0
993      -463458 394 0 0
997      -472371 395 0 0
1001      -481283 396 0 0
1005      -490196 397 0 0
1009      -499109 398 0 0
1013      -508021 399 0 0
1017      -516934 400 0 0
1021      -525847 401 0 0
1025      -534759 402 0 0
1029      -543672 403 0 0
1033      -552585 404 0 0
1037      -561497 405 0 0
1041      -570410 406 0 0
1045      -579323 407 0 0
1049      -588235 408 0 0
1053      -597148 409 0 0
1057      -606061 410 0 0
1061      -614973 411 0 0
1065      -623886 412 0 0
1069      -632799 413 0 0
1073      -641711 414 0 0
1077      -650624 415 0 0
1081      -659537 416 0 0
1085      -668449 417 0 0
1089      -677362 418 0 0
1093      -686275 419 0 0
1097      -695187 420 0 0
1101      -704100 421 0 0
1105      -713012 422 0 0
1109      -721925 423 0 0
1113      -730838 424 0 0
1117      -739750 425 0 0
1121      -748663 426 0 0
1125      -757576 427 0 0
1129      -766488 428 0 0
1133      -775401 429 0 0
1137      -784314 430 0 0
1141      -793226 431 0 0
1145      -802139 432 0 0
1149      -811052 433 0 0
1153      -819964 434 0 0
1157      -828877 435 0 0
1161      -837790 436 0 0
1165      -846702 437 0 0
1169      -855615 438 0 0
1173      -864528 439 0 0
1177      -873440 440 0 0
1181      -882353 441 0 0
1185      -891266 442 0 0
1189      -900178 443 0 0
1193      -909091 444 0 0
1197      -918004 445 0 0
1201      -926916 446 0 0
1205      -935829 447 0 0
1209      -944742 448 0 0
1213      -953654 449 0 0
1217      -962567 450 0 0
1221      -971480 451 0 0
1225      -980392 452 0 0
1229      -989305 453 0 0
1233      -998217 454 0 0
1237 -1.00713e+06 455 0 0
1241 -1.01604e+06 456 0 0
1245 -1.02496e+06 457 0 0
1249 -1.03387e+06 458 0 0
1253 -1.04278e+06 459 0 0
1257 -1.05169e+06 460 0 0
1261 -1.06061e+06 461 0 0
1265 -1.06952e+06 462 0 0
1268 -1.07843e+06 463 0 0
1271 -1.08734e+06 464 0 0
1274 -1.09626e+06 465 0 0
1277 -1.10517e+06 466 0 0
1278  2.38222e+06 467 468 0
1279 -1.14659e+06 469 470 0

# Format of trapezoid gradients:
# id amplitude rise flat fall delay
# ..      Hz/m   us   us   us    us
[TRAP]
 1       180288  60  720  60   0
 2      -669643 210    0 210   0
 5       175280  60  720  60   0
 6      -651042 210    0 210   0
 9       170272  60  720  60   0
10      -632440 210    0 210   0
13       165264  60  720  60   0
14      -613839 210    0 210   0
17       160256  60  720  60   0
18      -595238 210    0 210   0
21       155248  60  720  60   0
22      -576637 210    0 210   0
25       150240  60  720  60   0
26      -558036 210    0 210   0
29       145232  60  720  60   0
30      -539435 210    0 210   0
33       140224  60  720  60   0
34      -520833 210    0 210   0
37       135216  60  720  60   0
38      -502232 210    0 210   0
41       130208  60  720  60   0
42      -483631 210    0 210   0
45       125200  60  720  60   0
46      -465030 210    0 210   0
49       120192  60  720  60   0
50      -446429 210    0 210   0
53       115184  60  720  60   0
54      -427827 210    0 210   0
57       110176  60  720  60   0
58      -409226 210    0 210   0
61       105168  60  720  60   0
62      -390625 210    0 210   0
65       100160  60  720  60   0
66      -372024 210    0 210   0
69      95152.2  60  720  60   0
70      -353423 210    0 210   0
73      90144.2  60  720  60   0
74      -334821 210    0 210   0
77      85136.2  60  720  60   0
78      -316220 210    0 210   0
81      80128.2  60  720  60   0
82      -297619 210    0 210   0
85      75120.2  60  720  60   0
86      -279018 210    0 210   0
89      70112.2  60  720  60   0
90      -260417 210    0 210   0
93      65104.2  60  720  60   0
94      -241815 210    0 210   0
97      60096.2  60  720  60   0
98      -223214 210    0 210   0
101      55088.1  60  720  60   0
102      -204613 210    0 210   0
105      50080.1  60  720  60   0
106      -186012 210    0 210   0
109      45072.1  60  720  60   0
110      -167411 210    0 210   0
113      40064.1  60  720  60   0
114      -148810 210    0 210   0
117      35056.1  60  720  60   0
118      -130208 210    0 210   0
121      30048.1  60  720  60   0
122      -111607 210    0 210   0
125      25040.1  60  720  60   0
126       -93006 210    0 210   0
129      20032.1  60  720  60   0
130     -74404.8 210    0 210   0
133        15024  60  720  60   0
134     -55803.6 210    0 210   0
137        10016  60  720  60   0
138     -37202.4 210    0 210   0
141      5008.01  60  720  60   0
142     -18601.2 210    0 210   0
145           -0  60  720  60   0
146            0 210    0 210   0
149     -5008.01  60  720  60   0
150      18601.2 210    0 210   0
153       -10016  60  720  60   0
154      37202.4 210    0 210   0
157       -15024  60  720  60   0
158      55803.6 210    0 210   0
161     -20032.1  60  720  60   0
162      74404.8 210    0 210   0
165     -25040.1  60  720  60   0
166        93006 210    0 210   0
169     -30048.1  60  720  60   0
170       111607 210    0 210   0
173     -35056.1  60  720  60   0
174       130208 210    0 210   0
177     -40064.1  60  720  60   0
178       148810 210    0 210   0
181     -45072.1  60  720  60   0
182       167411 210    0 210   0
185     -50080.1  60  720  60   0
186       186012 210    0 210   0
189     -55088.1  60  720  60   0
190       204613 210    0 210   0
193     -60096.2  60  720  60   0
194       223214 210    0 210   0
197     -65104.2  60  720  60   0
198       241815 210    0 210   0
201     -70112.2  60  720  60   0
202       260417 210    0 210   0
205     -75120.2  60  720  60   0
206       279018 210    0 210   0
209     -80128.2  60  720  60   0
210       297619 210    0 210   0
213     -85136.2  60  720  60   0
214       316220 210    0 210   0
217     -90144.2  60  720  60   0
218       334821 210    0 210   0
221     -95152.2  60  720  60   0
222       353423 210    0 210   0
225      -100160  60  720  60   0
226       372024 210    0 210   0
229      -105168  60  720  60   0
230       390625 210    0 210   0
233      -110176  60  720  60   0
234       409226 210    0 210   0
237      -115184  60  720  60   0
238       427827 210    0 210   0
241      -120192  60  720  60   0
242       446429 210    0 210   0
245      -125200  60  720  60   0
246       465030 210    0 210   0
249      -130208  60  720  60   0
250       483631 210    0 210   0
253      -135216  60  720  60   0
254       502232 210    0 210   0
257      -140224  60  720  60   0
258       520833 210    0 210   0
261      -145232  60  720  60   0
262       539435 210    0 210   0
265      -150240  60  720  60   0
266       558036 210    0 210   0
269      -155248  60  720  60   0
270       576637 210    0 210   0
273      -160256  60  720  60   0
274       595238 210    0 210   0
277      -165264  60  720  60   0
278       613839 210    0 210   0
281      -170272  60  720  60   0
282       632440 210    0 210   0
285      -175280  60  720  60   0
286       651042 210    0 210   0
289  1.11408e+06 330  180 330   0
290 -1.38581e+06 410    0 410   0
292  1.10517e+06 330  180 330   0
293 -1.37472e+06 410    0 410   0
295  1.09626e+06 330  180 330   0
296 -1.36364e+06 410    0 410   0
298  1.08734e+06 330  180 330   0
299 -1.35255e+06 410    0 410   0
301  1.07843e+06 330  180 330   0
302 -1.34146e+06 410    0 410   0
304  1.06952e+06 330  180 330   0
305 -1.33038e+06 410    0 410   0
307  1.06061e+06 330  180 330   0
308 -1.31929e+06 410    0 410   0
310 -1.35227e+06 400    0 400   0
311  1.05169e+06 330  180 330   0
312  -1.3082e+06 410    0 410   0
314 -1.34091e+06 400    0 400   0
315  1.04278e+06 330  180 330   0
316 -1.29712e+06 410    0 410   0
318 -1.32955e+06 400    0 400   0
319  1.03387e+06 330  180 330   0
320 -1.28603e+06 410    0 410   0
322 -1.31818e+06 400    0 400   0
323  1.02496e+06 330  180 330   0
324 -1.27494e+06 410    0 410   0
326 -1.30682e+06 400    0 400   0
327  1.01604e+06 330  180 330   0
328 -1.26386e+06 410    0 410   0
330 -1.29545e+06 400    0 400   0
331  1.00713e+06 330  180 330   0
332 -1.25277e+06 410    0 410   0
334 -1.31702e+06 390    0 390   0
335       998217 330  180 330   0
336 -1.24169e+06 410    0 410   0
338 -1.30536e+06 390    0 390   0
339       989305 330  180 330   0
340  -1.2306e+06 410    0 410   0
342 -1.29371e+06 390    0 390   0
343       980392 330  180 330   0
344 -1.21951e+06 410    0 410   0
346 -1.28205e+06 390    0 390   0
347       971480 330  180 330   0
348 -1.20843e+06 410    0 410   0
350  -1.2704e+06 390    0 390   0
351       962567 330  180 330   0
352 -1.19734e+06 410    0 410   0
354 -1.29187e+06 380    0 380   0
355       953654 330  180 330   0
356 -1.18625e+06 410    0 410   0
358  -1.2799e+06 380    0 380   0
359       944742 330  180 330   0
360 -1.17517e+06 410    0 410   0
362 -1.26794e+06 380    0 380   0
363       935829 330  180 330   0
364 -1.16408e+06 410    0 410   0
366 -1.25598e+06 380    0 380   0
367       926916 330  180 330   0
368 -1.15299e+06 410    0 410   0
370 -1.24402e+06 380    0 380   0
371       918004 330  180 330   0
372 -1.14191e+06 410    0 410   0
374 -1.23206e+06 380    0 380   0
375       909091 330  180 330   0
376 -1.13082e+06 410    0 410   0
378 -1.25307e+06 370    0 370   0
379       900178 330  180 330   0
380 -1.11973e+06 410    0 410   0
382 -1.24079e+06 370    0 370   0
383       891266 330  180 330   0
384 -1.10865e+06 410    0 410   0
386  -1.2285e+06 370    0 370   0
387       882353 330  180 330   0
388 -1.09756e+06 410    0 410   0
390 -1.21622e+06 370    0 370   0
391       873440 330  180 330   0
392 -1.08647e+06 410    0 410   0
394 -1.20393e+06 370    0 370   0
395       864528 330  180 330   0
396 -1.07539e+06 410    0 410   0
398 -1.22475e+06 360    0 360   0
399       855615 330  180 330   0
400  -1.0643e+06 410    0 410   0
402 -1.21212e+06 360    0 360   0
403       846702 330  180 330   0
404 -1.05322e+06 410    0 410   0
406 -1.19949e+06 360    0 360   0
407       837790 330  180 330   0
408 -1.04213e+06 410    0 410   0
410 -1.18687e+06 360    0 360   0
411       828877 330  180 330   0
412 -1.03104e+06 410    0 410   0
414 -1.17424e+06 360    0 360   0
415       819964 330  180 330   0
416 -1.01996e+06 410    0 410   0
418 -1.16162e+06 360    0 360   0
419       811052 330  180 330   0
420 -1.00887e+06 410    0 410   0
422 -1.18182e+06 350    0 350   0
423       802139 330  180 330   0
424      -997783 410    0 410   0
426 -1.16883e+06 350    0 350   0
427       793226 330  180 330   0
428      -986696 410    0 410   0
430 -1.15584e+06 350    0 350   0
431       784314 330  180 330   0
432      -975610 410    0 410   0
434 -1.14286e+06 350    0 350   0
435       775401 330  180 330   0
436      -964523 410    0 410   0
438 -1.12987e+06 350    0 350   0
439       766488 330  180 330   0
440      -953437 410    0 410   0
442 -1.14973e+06 340    0 340   0
443       757576 330  180 330   0
444      -942350 410    0 410   0
446 -1.13636e+06 340    0 340   0
447       748663 330  180 330   0
448      -931264 410    0 410   0
450 -1.12299e+06 340    0 340   0
451       739750 330  180 330   0
452      -920177 410    0 410   0
