# Pulseq sequence file
# Created by MATLAB mr toolbox

[VERSION]
major 1
minor 5
revision 1

[DEFINITIONS]
ACS_Pairs 0 
AdcRasterTime 1e-07 
BlockDurationRaster 1e-05 
ETL_Blocks_IMG 29 
ETL_CenterSlot 96 
ETL_DummySlots_IMG 128 
ETL_Efficiency_IMG 1 
ETL_FillerPerKy_IMG 0 
ETL_Mode_IMG segmented 
ETL_RealSlots_IMG 5440 
ETL_SegLen_IMG 64 
ETL_SegmentsPerBlock_IMG 3 
ETL_SegmentsPerKy_IMG 1 
ETL_Target 192 
FOV 0.192 0.256 0.256 
FlipAngle 7 
GradientRasterTime 1e-05 
Name mprage_3d_wave_sin_cos_128x256x256_res1p5x1x1mm_ETL192_segmented_R1_2_R2_3_ACS1_0_ACS2_0_os4_amp8_cycles10_SAG_skyra 
Nx 128 
Ny 256 
Nz 256 
OrientationMapping SAG 
PE1_ACS 0 
PE1_ACSTargetLines 0 
PE1_ImgLines 64 
PE1_R 2 
PE2_ACS 0 
PE2_ACSTargetLines 0 
PE2_ImgLines 85 
PE2_R 3 
PhaseResolution 1 
RadiofrequencyRasterTime 1e-06 
ReadoutOversamplingFactor 4 
ReceiverGainHigh 1 
RequestedResolutionX_mm 1.5 
RequestedResolutionY_mm 1 
RequestedResolutionZ_mm 1 
ResolutionX_mm 1.5 
ResolutionY_mm 1 
ResolutionZ_mm 1 
SliceThickness 0.0015 
TR 2.5 
TotalDuration 72.5 
kSpaceCenterLine 128 
kSpaceCenterPartition 64 
ro_os 4 

# Format of blocks:
# NUM DUR RF  GX  GY  GZ  ADC  EXT
[BLOCKS]
    1 1044   2   0   0   0  0  0
    2 36276   0   0 769   0  0  0
    3 161   1   0   0   0  0  0
    4 600   0   1 261 771  1  5
    5 161   3   2 262 770  0  0
    6 600   0   1 267 771  2  7
    7 161   4   2 268 770  0  0
    8 600   0   1 273 771  3  8
    9 161   5   2 274 770  0  0
   10 600   0   5 261 771  4 11
   11 161   6   6 262 770  0  0
   12 600   0   5 267 771  5 14
   13 161   7   6 268 770  0  0
   14 600   0   5 273 771  6 16
   15 161   8   6 274 770  0  0
   16 600   0   9 261 771  7 17
   17 161   9  10 262 770  0  0
   18 600   0   9 267 771  8 18
   19 161   1  10 268 770  0  0
   20 600   0   9 273 771  1 19
   21 161  10  10 274 770  0  0
   22 600   0  13 261 771  9 20
   23 161  11  14 262 770  0  0
   24 600   0  13 267 771 10 21
   25 161  12  14 268 770  0  0
   26 600   0  13 273 771 11 22
   27 161   5  14 274 770  0  0
   28 600   0  17 261 771  4 23
   29 161  11  18 262 770  0  0
   30 600   0  17 267 771 10 24
   31 161  13  18 268 770  0  0
   32 600   0  17 273 771 12 25
   33 161  14  18 274 770  0  0
   34 600   0  21 261 771 13 26
   35 161   9  22 262 770  0  0
   36 600   0  21 267 771  8 27
   37 161  10  22 268 770  0  0
   38 600   0  21 273 771  9 28
   39 161  15  22 274 770  0  0
   40 600   0  25 261 771 14 29
   41 161   6  26 262 770  0  0
   42 600   0  25 267 771  5 30
   43 161  12  26 268 770  0  0
   44 600   0  25 273 771 11 31
   45 161   7  26 274 770  0  0
   46 600   0  29 261 771  6 32
   47 161   3  30 262 770  0  0
   48 600   0  29 267 771  2 33
   49 161  16  30 268 770  0  0
   50 600   0  29 273 771 15 34
   51 161  14  30 274 770  0  0
   52 600   0  33 261 771 13 35
   53 161   3  34 262 770  0  0
   54 600   0  33 267 771  2 36
   55 161  15  34 268 770  0  0
   56 600   0  33 273 771 14 37
   57 161  17  34 274 770  0  0
   58 600   0  37 261 771 16 38
   59 161   6  38 262 770  0  0
   60 600   0  37 267 771  5 39
   61 161   4  38 268 770  0  0
   62 600   0  37 273 771  3 40
   63 161  13  38 274 770  0  0
   64 600   0  41 261 771 12 41
   65 161   9  42 262 770  0  0
   66 600   0  41 267 771  8 42
   67 161  16  42 268 770  0  0
   68 600   0  41 273 771 15 43
   69 161   8  42 274 770  0  0
   70 600   0  45 261 771  7 44
   71 161  11  46 262 770  0  0
   72 600   0  45 267 771 10 45
   73 161  17  46 268 770  0  0
   74 600   0  45 273 771 16 46
   75 161  17  46 274 770  0  0
   76 600   0  49 261 771 16 47
   77 161  11  50 262 770  0  0
   78 600   0  49 267 771 10 48
   79 161   8  50 268 770  0  0
   80 600   0  49 273 771  7 49
   81 161  16  50 274 770  0  0
   82 600   0  53 261 771 15 50
   83 161   9  54 262 770  0  0
   84 600   0  53 267 771  8 51
   85 161  13  54 268 770  0  0
   86 600   0  53 273 771 12 52
   87 161   4  54 274 770  0  0
   88 600   0  57 261 771  3 53
   89 161   6  58 262 770  0  0
   90 600   0  57 267 771  5 54
   91 161  17  58 268 770  0  0
   92 600   0  57 273 771 16 55
   93 161  15  58 274 770  0  0
   94 600   0  61 261 771 14 56
   95 161   3  62 262 770  0  0
   96 600   0  61 267 771  2 57
   97 161  14  62 268 770  0  0
   98 600   0  61 273 771 13 58
   99 161  16  62 274 770  0  0
  100 600   0  65 261 771 15 59
  101 161   3  66 262 770  0  0
  102 600   0  65 267 771  2 60
  103 161   7  66 268 770  0  0
  104 600   0  65 273 771  6 61
  105 161  12  66 274 770  0  0
  106 600   0  69 261 771 11 62
  107 161   6  70 262 770  0  0
  108 600   0  69 267 771  5 63
  109 161  15  70 268 770  0  0
  110 600   0  69 273 771 14 64
  111 161  10  70 274 770  0  0
  112 600   0  73 261 771  9 65
  113 161   9  74 262 770  0  0
  114 600   0  73 267 771  8 66
  115 161  14  74 268 770  0  0
  116 600   0  73 273 771 13 67
  117 161  13  74 274 770  0  0
  118 600   0  77 261 771 12 68
  119 161  11  78 262 770  0  0
  120 600   0  77 267 771 10 69
  121 161   5  78 268 770  0  0
  122 600   0  77 273 771  4 70
  123 161  12  78 274 770  0  0
  124 600   0  81 261 771 11 71
  125 161  11  82 262 770  0  0
  126 600   0  81 267 771 10 72
  127 161  10  82 268 770  0  0
  128 600   0  81 273 771  9 73
  129 161   1  82 274 770  0  0
  130 600   0  85 261 771  1 74
  131 161   9  86 262 770  0  0
  132 600   0  85 267 771  8 75
  133 161   8  86 268 770  0  0
  134 600   0  85 273 771  7 76
  135 161   7  86 274 770  0  0
  136 600   0  89 261 771  6 77
  137 161   6  90 262 770  0  0
  138 600   0  89 267 771  5 78
  139 161   5  90 268 770  0  0
  140 600   0  89 273 771  4 79
  141 161   4  90 274 770  0  0
  142 600   0  93 261 771  3 80
  143 161   3  94 262 770  0  0
  144 600   0  93 267 771  2 81
  145 161   1  94 268 770  0  0
  146 600   0  93 273 771  1 82
  147 161   1  94 274 770  0  0
  148 600   0  97 261 771  1 83
  149 161   3  98 262 770  0  0
  150 600   0  97 267 771  2 84
  151 161   4  98 268 770  0  0
  152 600   0  97 273 771  3 85
  153 161   5  98 274 770  0  0
  154 600   0 101 261 771  4 86
  155 161   6 102 262 770  0  0
  156 600   0 101 267 771  5 87
  157 161   7 102 268 770  0  0
  158 600   0 101 273 771  6 88
  159 161   8 102 274 770  0  0
  160 600   0 105 261 771  7 89
  161 161   9 106 262 770  0  0
  162 600   0 105 267 771  8 90
  163 161   1 106 268 770  0  0
  164 600   0 105 273 771  1 91
  165 161  10 106 274 770  0  0
  166 600   0 109 261 771  9 92
  167 161  11 110 262 770  0  0
  168 600   0 109 267 771 10 93
  169 161  12 110 268 770  0  0
  170 600   0 109 273 771 11 94
  171 161   5 110 274 770  0  0
  172 600   0 113 261 771  4 95
  173 161  11 114 262 770  0  0
  174 600   0 113 267 771 10 96
  175 161  13 114 268 770  0  0
  176 600   0 113 273 771 12 97
  177 161  14 114 274 770  0  0
  178 600   0 117 261 771 13 98
  179 161   9 118 262 770  0  0
  180 600   0 117 267 771  8 99
  181 161  10 118 268 770  0  0
  182 600   0 117 273 771  9 100
  183 161  15 118 274 770  0  0
  184 600   0 121 261 771 14 101
  185 161   6 122 262 770  0  0
  186 600   0 121 267 771  5 102
  187 161  12 122 268 770  0  0
  188 600   0 121 273 771 11 103
  189 161   7 122 274 770  0  0
  190 600   0 125 261 771  6 104
  191 161   3 126 262 770  0  0
  192 600   0 125 267 771  2 105
  193 161  16 126 268 770  0  0
  194 600   0 125 273 771 15 106
  195 161  14 126 274 770  0  0
  196 600   0 129 261 771 13 107
  197 161   3 130 262 770  0  0
  198 600   0 129 267 771  2 108
  199 161  15 130 268 770  0  0
  200 600   0 129 273 771 14 109
  201 161  17 130 274 770  0  0
  202 600   0 133 261 771 16 110
  203 161   6 134 262 770  0  0
  204 600   0 133 267 771  5 111
  205 161   4 134 268 770  0  0
  206 600   0 133 273 771  3 112
  207 161  13 134 274 770  0  0
  208 600   0 137 261 771 12 113
  209 161   9 138 262 770  0  0
  210 600   0 137 267 771  8 114
  211 161  16 138 268 770  0  0
  212 600   0 137 273 771 15 115
  213 161   8 138 274 770  0  0
  214 600   0 141 261 771  7 116
  215 161  11 142 262 770  0  0
  216 600   0 141 267 771 10 117
  217 161  17 142 268 770  0  0
  218 600   0 141 273 771 16 118
  219 161  17 142 274 770  0  0
  220 600   0 145 261 771 16 119
  221 161  11 146 262 770  0  0
  222 600   0 145 267 771 10 120
  223 161   8 146 268 770  0  0
  224 600   0 145 273 771  7 121
  225 161  16 146 274 770  0  0
  226 600   0 149 261 771 15 122
  227 161   9 150 262 770  0  0
  228 600   0 149 267 771  8 123
  229 161  13 150 268 770  0  0
  230 600   0 149 273 771 12 124
  231 161   4 150 274 770  0  0
  232 600   0 153 261 771  3 125
  233 161   6 154 262 770  0  0
  234 600   0 153 267 771  5 126
  235 161  17 154 268 770  0  0
  236 600   0 153 273 771 16 127
  237 161  15 154 274 770  0  0
  238 600   0 157 261 771 14 128
  239 161   3 158 262 770  0  0
  240 600   0 157 267 771  2 129
  241 161  14 158 268 770  0  0
  242 600   0 157 273 771 13 130
  243 161  16 158 274 770  0  0
  244 600   0 161 261 771 15 131
  245 161   3 162 262 770  0  0
  246 600   0 161 267 771  2 132
  247 161   7 162 268 770  0  0
  248 600   0 161 273 771  6 133
  249 161  12 162 274 770  0  0
  250 600   0 165 261 771 11 134
  251 161   6 166 262 770  0  0
  252 600   0 165 267 771  5 135
  253 161  15 166 268 770  0  0
  254 600   0 165 273 771 14 136
  255 161  10 166 274 770  0  0
  256 600   0 169 261 771  9 137
  257 161   9 170 262 770  0  0
  258 600   0 169 267 771  8 138
  259 161  14 170 268 770  0  0
  260 600   0 169 273 771 13 139
  261 161  13 170 274 770  0  0
  262 600   0 173 261 771 12 140
  263 161  11 174 262 770  0  0
  264 600   0 173 267 771 10 141
  265 161   5 174 268 770  0  0
  266 600   0 173 273 771  4 142
  267 161  12 174 274 770  0  0
  268 600   0 177 261 771 11 143
  269 161  11 178 262 770  0  0
  270 600   0 177 267 771 10 144
  271 161  10 178 268 770  0  0
  272 600   0 177 273 771  9 145
  273 161   1 178 274 770  0  0
  274 600   0 181 261 771  1 146
[RF]
1      194.444 645 646 647 50 1410 0 0 0 0 e
2      563.681 648 649 650 5125 100 0 0 0 0 i
3      194.444 645 646 647 50 1410 0 0 0 0.872665 e
4      194.444 645 646 647 50 1410 0 0 0 2.61799 e
5      194.444 645 646 647 50 1410 0 0 0 5.23599 e
6      194.444 645 646 647 50 1410 0 0 0 2.44346 e
7      194.444 645 646 647 50 1410 0 0 0 0.523599 e
8      194.444 645 646 647 50 1410 0 0 0 5.75959 e
9      194.444 645 646 647 50 1410 0 0 0 5.58505 e
10      194.444 645 646 647 50 1410 0 0 0 1.5708 e
11      194.444 645 646 647 50 1410 0 0 0 4.01426 e
12      194.444 645 646 647 50 1410 0 0 0 1.0472 e
13      194.444 645 646 647 50 1410 0 0 0 3.66519 e
14      194.444 645 646 647 50 1410 0 0 0 4.18879 e
15      194.444 645 646 647 50 1410 0 0 0 4.71239 e
16      194.444 645 646 647 50 1410 0 0 0 2.0944 e
17      194.444 645 646 647 50 1410 0 0 0 3.14159 e

# Format of arbitrary gradients:
#   time_shape_id of 0 means default timing (stepping with grad_raster starting at 1/2 of grad_raster)
# id amplitude first last amp_shape_id time_shape_id delay
# ..      Hz/m  Hz/m Hz/m        ..         ..          us
[GRADIENTS]
1       599860            0       340608 1 0 0
2  1.01447e+06       340608            0 2 3 0
3       587888            0       340608 4 0 0
4  1.01413e+06       340608            0 5 6 0
5       575916            0       340608 7 0 0
6  1.01379e+06       340608            0 8 9 0
7       563945            0       340608 10 0 0
8  1.01343e+06       340608            0 11 12 0
9       551973            0       340608 13 0 0
10       983486       340608            0 14 15 0
11       540002            0       340608 16 0 0
12       982750       340608            0 17 18 0
13       528030            0       340608 19 0 0
14       981994       340608            0 20 21 0
15       516059            0       340608 22 0 0
16       964273       340608            0 23 24 0
17       504087            0       340608 25 0 0
18       963268       340608            0 26 27 0
19       492115            0       340608 28 0 0
20       962236       340608            0 29 30 0
21       480144            0       340608 31 0 0
22       961177       340608            0 32 33 0
23       468172            0       340608 34 0 0
24       930342       340608            0 35 36 0
25       456201            0       340608 37 0 0
26       928858       340608            0 38 39 0
27       444229            0       340608 40 0 0
28       927333       340608            0 41 42 0
29       432258            0       340608 43 0 0
30       925767       340608            0 44 45 0
31       420286            0       340608 46 0 0
32       894577       340608            0 47 48 0
33       408315            0       340608 49 0 0
34       892562       340608            0 50 51 0
35       396343            0       340608 52 0 0
36       903034       340608            0 53 54 0
37       384371            0       340608 55 0 0
38       871293       340608            0 56 57 0
39       372400            0       340608 58 0 0
40       868894       340608            0 59 60 0
41       360428            0       340608 61 0 0
42       866425       340608            0 62 63 0
43       348457            0       340608 64 0 0
44       863886       340608            0 65 66 0
45       340608            0       340608 67 0 0
46       831798       340608            0 68 69 0
47       340608            0       340608 70 0 0
48       840944       340608            0 71 72 0
49       340608            0       340608 73 0 0
50       837948       340608            0 74 75 0
51       340608            0       340608 76 0 0
52       805298       340608            0 77 78 0
53       340608            0       340608 79 0 0
54       801770       340608            0 80 81 0
55       340608            0       340608 82 0 0
56       810414       340608            0 83 84 0
57       340608            0       340608 85 0 0
58       777191       340608            0 86 87 0
59       340608            0       340608 88 0 0
60       773122       340608            0 89 90 0
61       340608            0       340608 91 0 0
62       781132       340608            0 92 93 0
63       340608            0       340608 94 0 0
64       747328       340608            0 95 96 0
65       340608            0       340608 97 0 0
66       742656       340608            0 98 99 0
67       340608            0       340608 100 0 0
68       749929       340608            0 101 102 0
69       340608            0       340608 103 0 0
70       715539       340608            0 104 105 0
71       340608            0       340608 106 0 0
72       710192       340608            0 107 108 0
73       340608            0       340608 109 0 0
74       716611       340608            0 110 111 0
75       340608            0       340608 112 0 0
76       681630       340608            0 113 114 0
77       340608            0       340608 115 0 0
78       687175       340608            0 116 117 0
79       340608            0       340608 118 0 0
80       680956       340608            0 119 120 0
81       340608            0       340608 121 0 0
82       656705       340608            0 122 123 0
83       340608            0       340608 124 0 0
84       649831       340608            0 125 126 0
85       340608            0       340608 127 0 0
86       625147       340608            0 128 129 0
87       340608            0       340608 130 0 0
88       629011       340608            0 131 132 0
89       340608            0       340608 133 0 0
90       621225       340608            0 134 135 0
91       340608            0       340608 136 0 0
92       595144       340608            0 137 138 0
93       340608            0       340608 139 0 0
94       598058       340608            0 140 141 0
95       340608            0       340608 142 0 0
96       559975       340608            0 143 144 0
97       340608            0       340608 145 0 0
98       561541       340608            0 146 147 0
99       340608            0       340608 148 0 0
100       533895       340608            0 149 150 0
101      -340608            0       340608 151 0 0
102       534439       340608            0 152 153 0
103      -340608            0       340608 154 0 0
104       505642       340608            0 155 156 0
105      -340608            0       340608 157 0 0
106       504982       340608            0 158 159 0
107      -340608            0       340608 160 0 0
108       474932       340608            0 161 162 0
109      -340608            0       340608 163 0 0
110       472846       340608            0 164 165 0
111      -340608            0       340608 166 0 0
112       441430       340608            0 167 168 0
113      -340608            0       340608 169 0 0
114       448324       340608            0 170 171 0
115      -340608            0       340608 172 0 0
116       414610       340608            0 173 174 0
117      -340608            0       340608 175 0 0
118       409162       340608            0 176 177 0
119      -340608            0       340608 178 0 0
120       383554       340608            0 179 180 0
121      -340608            0       340608 181 0 0
122       356562       340608            0 182 183 0
123      -340608            0       340608 184 0 0
124       347175       340608            0 185 186 0
125      -340608            0       340608 187 0 0
126       340608       340608            0 188 189 0
127      -340608            0       340608 190 0 0
128       340608       340608            0 191 192 0
129      -340608            0       340608 193 0 0
130       340608       340608            0 194 195 0
131      -340608            0       340608 196 0 0
132       340608       340608            0 197 198 0
133      -340608            0       340608 199 0 0
134       340608       340608            0 200 201 0
135      -340608            0       340608 202 0 0
136       340608       340608            0 203 204 0
137      -340608            0       340608 205 0 0
138       340608       340608            0 206 207 0
139      -340608            0       340608 208 0 0
140       340608       340608            0 209 210 0
141      -340608            0       340608 211 0 0
142       362866       340608            0 212 213 0
143      -340608            0       340608 214 0 0
144       340608       340608            0 215 216 0
145      -340608            0       340608 217 0 0
146       361173       340608            0 218 219 0
147      -340608            0       340608 220 0 0
148       421238       340608            0 221 222 0
149      -340608            0       340608 223 0 0
150       360015       340608            0 224 225 0
151      -340608            0       340608 226 0 0
152       394097       340608            0 227 228 0
153      -340608            0       340608 229 0 0
154       421101       340608            0 230 231 0
155      -340608            0       340608 232 0 0
156       452967       340608            0 233 234 0
157      -340608            0       340608 235 0 0
158       453902       340608            0 236 237 0
159      -349854            0       340608 238 0 0
160       481945       340608            0 239 240 0
161      -361826            0       340608 241 0 0
162       484825       340608            0 242 243 0
163      -373798            0       340608 244 0 0
164       510790       340608            0 245 246 0
165      -385769            0       340608 247 0 0
166       511483       340608            0 248 249 0
167      -397741            0       340608 250 0 0
168       542624       340608            0 251 252 0
169      -409712            0       340608 253 0 0
170       541171       340608            0 254 255 0
171      -421684            0       340608 256 0 0
172       539900       340608            0 257 258 0
173      -433655            0       340608 259 0 0
174       601905       340608            0 260 261 0
175      -445627            0       340608 262 0 0
176       605004       340608            0 263 264 0
177      -457598            0       340608 265 0 0
178       626912       340608            0 266 267 0
179      -469570            0       340608 268 0 0
180       602939       340608            0 269 270 0
181      -481542            0       340608 271 0 0
182       605664       340608            0 272 273 0
183      -493513            0       340608 274 0 0
184       662462       340608            0 275 276 0
185      -505485            0       340608 277 0 0
186       663535       340608            0 278 279 0
187      -517456            0       340608 280 0 0
188       664549       340608            0 281 282 0
189      -529428            0       340608 283 0 0
190       665509       340608            0 284 285 0
191      -541399            0       340608 286 0 0
192       720855       340608            0 287 288 0
193      -553371            0       340608 289 0 0
194       720334       340608            0 290 291 0
195      -565342            0       340608 292 0 0
196       719840       340608            0 293 294 0
197      -577314            0       340608 295 0 0
198       755283       340608            0 296 297 0
199      -589286            0       340608 298 0 0
200       753927       340608            0 299 300 0
201      -601257            0       340608 301 0 0
202       752638       340608            0 302 303 0
203      -613229            0       340608 304 0 0
204       786352       340608            0 305 306 0
205      -625200            0       340608 307 0 0
206       784321       340608            0 308 309 0
207      -637172            0       340608 310 0 0
208       782385       340608            0 311 312 0
209      -649143            0       340608 313 0 0
210       814530       340608            0 314 315 0
211      -661115            0       340608 316 0 0
212       811952       340608            0 317 318 0
213      -673087            0       340608 319 0 0
214       809487       340608            0 320 321 0
215      -685058            0       340608 322 0 0
216       840205       340608            0 323 324 0
217      -697030            0       340608 325 0 0
218       819367       340608            0 326 327 0
219      -709001            0       340608 328 0 0
220       848777       340608            0 329 330 0
221      -720973            0       340608 331 0 0
222       845700       340608            0 332 333 0
223      -732944            0       340608 334 0 0
224       842748       340608            0 335 336 0
225      -744916            0       340608 337 0 0
226       870958       340608            0 338 339 0
227      -756887            0       340608 340 0 0
228       878314       340608            0 341 342 0
229      -768859            0       340608 343 0 0
230       906524       340608            0 344 345 0
231      -780831            0       340608 346 0 0
232       902414       340608            0 347 348 0
233      -792802            0       340608 349 0 0
234       898466       340608            0 350 351 0
235      -804774            0       340608 352 0 0
236       907770       340608            0 353 354 0
237      -816745            0       340608 355 0 0
238       903870       340608            0 356 357 0
239      -828717            0       340608 358 0 0
240       929951       340608            0 359 360 0
241      -840688            0       340608 361 0 0
242       936751       340608            0 362 363 0
243      -852660            0       340608 364 0 0
244       962832       340608            0 365 366 0
245      -864632            0       340608 367 0 0
246       940567       340608            0 368 369 0
247      -876603            0       340608 370 0 0
248       965699       340608            0 371 372 0
249      -888575            0       340608 373 0 0
250       960973       340608            0 374 375 0
251      -900546            0       340608 376 0 0
252       997385       340608            0 377 378 0
253      -912518            0       340608 379 0 0
254       992093       340608            0 380 381 0
255      -924489            0       340608 382 0 0
256       998939       340608            0 383 384 0
257  1.04167e+06            0            0 385 0 0
259  1.03353e+06            0            0 386 0 0
261  1.02539e+06            0            0 387 0 0
263  1.01725e+06            0            0 388 0 0
265  1.00911e+06            0            0 389 0 0
267  1.00098e+06            0            0 390 0 0
269       992839            0            0 391 0 0
271       984701            0            0 392 0 0
273       976562            0            0 393 0 0
275       968424            0            0 394 0 0
277       960286            0            0 395 0 0
279       952148            0            0 396 0 0
281       944010            0            0 397 0 0
283       935872            0            0 398 0 0
285       927734            0            0 399 0 0
287       919596            0            0 400 0 0
289       911458            0            0 401 0 0
291       903320            0            0 402 0 0
293       895182            0            0 403 0 0
295       887044            0            0 404 0 0
297       878906            0            0 405 0 0
299       870768            0            0 406 0 0
301       862630            0            0 407 0 0
303       854492            0            0 408 0 0
305       846354            0            0 409 0 0
307       838216            0            0 410 0 0
309       830078            0            0 411 0 0
311       821940            0            0 412 0 0
313       813802            0            0 413 0 0
315       805664            0            0 414 0 0
317       797526            0            0 415 0 0
319       789388            0            0 416 0 0
321       781250            0            0 417 0 0
323       773112            0            0 418 0 0
325       764974            0            0 419 0 0
327       756836            0            0 420 0 0
329       748698            0            0 421 0 0
331       740560            0            0 422 0 0
333       732422            0            0 423 0 0
335       724284            0            0 424 0 0
337       716146            0            0 425 0 0
339       708008            0            0 426 0 0
341       699870            0            0 427 0 0
343       691732            0            0 428 0 0
345       683594            0            0 429 0 0
347       675456            0            0 430 0 0
349       667318            0            0 431 0 0
351       659180            0            0 432 0 0
353       651042            0            0 433 0 0
355       642904            0            0 434 0 0
357       634766            0            0 435 0 0
359       626628            0            0 436 0 0
361       618490            0            0 437 0 0
363       610352            0            0 438 0 0
365       602214            0            0 439 0 0
367       594076            0            0 440 0 0
369       585938            0            0 441 0 0
371       577799            0            0 442 0 0
373       569661            0            0 443 0 0
375       561523            0            0 444 0 0
377       553385            0            0 445 0 0
379       545247            0            0 446 0 0
381       537109            0            0 447 0 0
383       528971            0            0 448 0 0
385       520833            0            0 449 0 0
387       512695            0            0 450 0 0
389       504557            0            0 451 0 0
391       496419            0            0 452 0 0
393       488281            0            0 453 0 0
395       480143            0            0 454 0 0
397       472005            0            0 455 0 0
399       463867            0            0 456 0 0
401       455729            0            0 457 0 0
403       447591            0            0 458 0 0
405       439453            0            0 459 0 0
407       431315            0            0 460 0 0
409       423177            0            0 461 0 0
411       415039            0            0 462 0 0
413       406901            0            0 463 0 0
415       398763            0            0 464 0 0
417       390625            0            0 465 0 0
419       382487            0            0 466 0 0
421       374349            0            0 467 0 0
423       366211            0            0 468 0 0
425       358073            0            0 469 0 0
427       349935            0            0 470 0 0
429       341797            0            0 471 0 0
431       340608            0            0 472 0 0
433       340608            0            0 473 0 0
435       340608            0            0 474 0 0
437       340608            0            0 475 0 0
439       340608            0            0 476 0 0
441       340608            0            0 477 0 0
443       340608            0            0 478 0 0
445       340608            0            0 479 0 0
447       340608            0            0 480 0 0
449       340608            0            0 481 0 0
451       340608            0            0 482 0 0
453       340608            0            0 483 0 0
455       340608            0            0 484 0 0
457       340608            0            0 485 0 0
459       340608            0            0 486 0 0
461       340608            0            0 487 0 0
463       340608            0            0 488 0 0
465       340608            0            0 489 0 0
467       340608            0            0 490 0 0
469       340608            0            0 491 0 0
471       340608            0            0 492 0 0
473       340608            0            0 493 0 0
475       340608            0            0 494 0 0
477       340608            0            0 495 0 0
479       340608            0            0 496 0 0
481       340608            0            0 497 0 0
