# Pulseq sequence file
# Created by MATLAB mr toolbox

[VERSION]
major 1
minor 5
revision 1

[DEFINITIONS]
AdcRasterTime 1e-07 
BlockDurationRaster 1e-05 
FOV 0.192 0.256 0.256 
FlipAngle 7 
GradientRasterTime 1e-05 
NParts 5 
Nacs 32 
Name gre_witness_merged_calib_192x256x256_Nxos1024_Ncalib72x1_Nacs32_Ndummy300_Nsettle10_os4_amp8_cycles10_SAG_skyra 
Ncalib1 72 
Ncalib2 1 
Ndummy 300 
NsettlePerPart 10 
Nx 192 
Nx_os 1024 
Ny 256 
Nz 256 
OrientationMapping SAG 
Part0_IsACS 0 
Part0_KyPhysStart0 92 
Part0_KyPhysStop0 163 
Part0_KzPhysStart0 96 
Part0_KzPhysStop0 96 
Part0_Mode nowave 
Part0_NLinLocal 72 
Part0_NParLocal 1 
Part0_Name nowave_kywide_kznarrow 
Part0_SetID 0 
Part1_IsACS 0 
Part1_KyPhysStart0 92 
Part1_KyPhysStop0 163 
Part1_KzPhysStart0 96 
Part1_KzPhysStop0 96 
Part1_Mode sin 
Part1_NLinLocal 72 
Part1_NParLocal 1 
Part1_Name sin_kywide_kznarrow 
Part1_SetID 1 
Part2_IsACS 0 
Part2_KyPhysStart0 128 
Part2_KyPhysStop0 128 
Part2_KzPhysStart0 60 
Part2_KzPhysStop0 131 
Part2_Mode nowave 
Part2_NLinLocal 1 
Part2_NParLocal 72 
Part2_Name nowave_kzwide_kynarrow 
Part2_SetID 2 
Part3_IsACS 0 
Part3_KyPhysStart0 128 
Part3_KyPhysStop0 128 
Part3_KzPhysStart0 60 
Part3_KzPhysStop0 131 
Part3_Mode cos 
Part3_NLinLocal 1 
Part3_NParLocal 72 
Part3_Name cos_kzwide_kynarrow 
Part3_SetID 3 
Part4_IsACS 1 
Part4_KyPhysStart0 112 
Part4_KyPhysStop0 143 
Part4_KzPhysStart0 80 
Part4_KzPhysStop0 111 
Part4_Mode nowave 
Part4_NLinLocal 32 
Part4_NParLocal 32 
Part4_Name acs_nowave_center 
Part4_SetID 4 
RadiofrequencyRasterTime 1e-06 
ReadoutOversamplingFactor 4 
ReceiverGainHigh 1 
SliceThickness 0.001 
TE 0.0035725 
TR 0.00761 
TotalDuration 12.64923 
ro_os 4 

# Format of blocks:
# NUM DUR RF  GX  GY  GZ  ADC  EXT
[BLOCKS]
   1 161   1   0   0   0  0  0
   2 600   0 401 1234 1661  0  0
   3 161   2 402 1235 1660  0  0
   4 600   0 405 1234 1661  0  0
   5 161   3 406 1235 1660  0  0
   6 600   0 409 1234 1661  0  0
   7 161   4 410 1235 1660  0  0
   8 600   0 413 1234 1661  0  0
   9 161   5 414 1235 1660  0  0
  10 600   0 417 1234 1661  0  0
  11 161   6 418 1235 1660  0  0
  12 600   0 421 1234 1661  0  0
  13 161   7 422 1235 1660  0  0
  14 600   0 425 1234 1661  0  0
  15 161   8 426 1235 1660  0  0
  16 600   0 429 1234 1661  0  0
  17 161   1 430 1235 1660  0  0
  18 600   0 433 1234 1661  0  0
  19 161   9 434 1235 1660  0  0
  20 600   0 437 1234 1661  0  0
  21 161  10 438 1235 1660  0  0
  22 600   0 441 1234 1661  0  0
  23 161  11 442 1235 1660  0  0
  24 600   0 445 1234 1661  0  0
  25 161   4 446 1235 1660  0  0
  26 600   0 321 1238 1661  0  0
  27 161  10 322 1239 1660  0  0
  28 600   0 325 1238 1661  0  0
  29 161  12 326 1239 1660  0  0
  30 600   0 329 1238 1661  0  0
  31 161  13 330 1239 1660  0  0
  32 600   0 333 1238 1661  0  0
  33 161   8 334 1239 1660  0  0
  34 600   0 337 1238 1661  0  0
  35 161   9 338 1239 1660  0  0
  36 600   0 341 1238 1661  0  0
  37 161  14 342 1239 1660  0  0
  38 600   0 345 1238 1661  0  0
  39 161   5 346 1239 1660  0  0
  40 600   0 349 1238 1661  0  0
  41 161  11 350 1239 1660  0  0
  42 600   0 353 1238 1661  0  0
  43 161   6 354 1239 1660  0  0
  44 600   0 357 1238 1661  0  0
  45 161   2 358 1239 1660  0  0
  46 600   0 361 1238 1661  0  0
  47 161  15 362 1239 1660  0  0
  48 600   0 365 1238 1661  0  0
  49 161  13 366 1239 1660  0  0
  50 600   0 369 1238 1661  0  0
  51 161   2 370 1239 1660  0  0
  52 600   0 373 1238 1661  0  0
  53 161  14 374 1239 1660  0  0
  54 600   0 377 1238 1661  0  0
  55 161  16 378 1239 1660  0  0
  56 600   0 381 1238 1661  0  0
  57 161   5 382 1239 1660  0  0
  58 600   0 385 1238 1661  0  0
  59 161   3 386 1239 1660  0  0
  60 600   0 389 1238 1661  0  0
  61 161  12 390 1239 1660  0  0
  62 600   0 393 1238 1661  0  0
  63 161   8 394 1239 1660  0  0
  64 600   0 397 1238 1661  0  0
  65 161  15 398 1239 1660  0  0
  66 600   0 401 1238 1661  0  0
  67 161   7 402 1239 1660  0  0
  68 600   0 405 1238 1661  0  0
  69 161  10 406 1239 1660  0  0
  70 600   0 409 1238 1661  0  0
  71 161  16 410 1239 1660  0  0
  72 600   0 413 1238 1661  0  0
  73 161  16 414 1239 1660  0  0
  74 600   0 417 1238 1661  0  0
  75 161  10 418 1239 1660  0  0
  76 600   0 421 1238 1661  0  0
  77 161   7 422 1239 1660  0  0
  78 600   0 425 1238 1661  0  0
  79 161  15 426 1239 1660  0  0
  80 600   0 429 1238 1661  0  0
  81 161   8 430 1239 1660  0  0
  82 600   0 433 1238 1661  0  0
  83 161  12 434 1239 1660  0  0
  84 600   0 437 1238 1661  0  0
  85 161   3 438 1239 1660  0  0
  86 600   0 441 1238 1661  0  0
  87 161   5 442 1239 1660  0  0
  88 600   0 445 1238 1661  0  0
  89 161  16 446 1239 1660  0  0
  90 600   0 321 409 1661  0  0
  91 161  14 322 410 1660  0  0
  92 600   0 325 409 1661  0  0
  93 161   2 326 410 1660  0  0
  94 600   0 329 409 1661  0  0
  95 161  13 330 410 1660  0  0
  96 600   0 333 409 1661  0  0
  97 161  15 334 410 1660  0  0
  98 600   0 337 409 1661  0  0
  99 161   2 338 410 1660  0  0
 100 600   0 341 409 1661  0  0
 101 161   6 342 410 1660  0  0
 102 600   0 345 409 1661  0  0
 103 161  11 346 410 1660  0  0
 104 600   0 349 409 1661  0  0
 105 161   5 350 410 1660  0  0
 106 600   0 353 409 1661  0  0
 107 161  14 354 410 1660  0  0
 108 600   0 357 409 1661  0  0
 109 161   9 358 410 1660  0  0
 110 600   0 361 409 1661  0  0
 111 161   8 362 410 1660  0  0
 112 600   0 365 409 1661  0  0
 113 161  13 366 410 1660  0  0
 114 600   0 369 409 1661  0  0
 115 161  12 370 410 1660  0  0
 116 600   0 373 409 1661  0  0
 117 161  10 374 410 1660  0  0
 118 600   0 377 409 1661  0  0
 119 161   4 378 410 1660  0  0
 120 600   0 381 409 1661  0  0
 121 161  11 382 410 1660  0  0
 122 600   0 385 409 1661  0  0
 123 161  10 386 410 1660  0  0
 124 600   0 389 409 1661  0  0
 125 161   9 390 410 1660  0  0
 126 600   0 393 409 1661  0  0
 127 161   1 394 410 1660  0  0
 128 600   0 397 409 1661  0  0
 129 161   8 398 410 1660  0  0
 130 600   0 401 409 1661  0  0
 131 161   7 402 410 1660  0  0
 132 600   0 405 409 1661  0  0
 133 161   6 406 410 1660  0  0
 134 600   0 409 409 1661  0  0
 135 161   5 410 410 1660  0  0
 136 600   0 413 409 1661  0  0
 137 161   4 414 410 1660  0  0
 138 600   0 417 409 1661  0  0
 139 161   3 418 410 1660  0  0
 140 600   0 421 409 1661  0  0
 141 161   2 422 410 1660  0  0
 142 600   0 425 409 1661  0  0
 143 161   1 426 410 1660  0  0
 144 600   0 429 409 1661  0  0
 145 161   1 430 410 1660  0  0
 146 600   0 433 409 1661  0  0
 147 161   2 434 410 1660  0  0
 148 600   0 437 409 1661  0  0
 149 161   3 438 410 1660  0  0
 150 600   0 441 409 1661  0  0
 151 161   4 442 410 1660  0  0
 152 600   0 445 409 1661  0  0
 153 161   5 446 410 1660  0  0
 154 600   0 321 1244 1661  0  0
 155 161   6 322 1245 1660  0  0
 156 600   0 325 1244 1661  0  0
 157 161   7 326 1245 1660  0  0
 158 600   0 329 1244 1661  0  0
 159 161   8 330 1245 1660  0  0
 160 600   0 333 1244 1661  0  0
 161 161   1 334 1245 1660  0  0
 162 600   0 337 1244 1661  0  0
 163 161   9 338 1245 1660  0  0
 164 600   0 341 1244 1661  0  0
 165 161  10 342 1245 1660  0  0
 166 600   0 345 1244 1661  0  0
 167 161  11 346 1245 1660  0  0
 168 600   0 349 1244 1661  0  0
 169 161   4 350 1245 1660  0  0
 170 600   0 353 1244 1661  0  0
 171 161  10 354 1245 1660  0  0
 172 600   0 357 1244 1661  0  0
 173 161  12 358 1245 1660  0  0
 174 600   0 361 1244 1661  0  0
 175 161  13 362 1245 1660  0  0
 176 600   0 365 1244 1661  0  0
 177 161   8 366 1245 1660  0  0
 178 600   0 369 1244 1661  0  0
 179 161   9 370 1245 1660  0  0
 180 600   0 373 1244 1661  0  0
 181 161  14 374 1245 1660  0  0
 182 600   0 377 1244 1661  0  0
 183 161   5 378 1245 1660  0  0
 184 600   0 381 1244 1661  0  0
 185 161  11 382 1245 1660  0  0
 186 600   0 385 1244 1661  0  0
 187 161   6 386 1245 1660  0  0
 188 600   0 389 1244 1661  0  0
 189 161   2 390 1245 1660  0  0
 190 600   0 393 1244 1661  0  0
 191 161  15 394 1245 1660  0  0
 192 600   0 397 1244 1661  0  0
 193 161  13 398 1245 1660  0  0
 194 600   0 401 1244 1661  0  0
 195 161   2 402 1245 1660  0  0
 196 600   0 405 1244 1661  0  0
 197 161  14 406 1245 1660  0  0
 198 600   0 409 1244 1661  0  0
 199 161  16 410 1245 1660  0  0
 200 600   0 413 1244 1661  0  0
 201 161   5 414 1245 1660  0  0
 202 600   0 417 1244 1661  0  0
 203 161   3 418 1245 1660  0  0
 204 600   0 421 1244 1661  0  0
 205 161  12 422 1245 1660  0  0
 206 600   0 425 1244 1661  0  0
 207 161   8 426 1245 1660  0  0
 208 600   0 429 1244 1661  0  0
 209 161  15 430 1245 1660  0  0
 210 600   0 433 1244 1661  0  0
 211 161   7 434 1245 1660  0  0
 212 600   0 437 1244 1661  0  0
 213 161  10 438 1245 1660  0  0
 214 600   0 441 1244 1661  0  0
 215 161  16 442 1245 1660  0  0
 216 600   0 445 1244 1661  0  0
 217 161  16 446 1245 1660  0  0
 218 600   0 321 1248 1661  0  0
 219 161  10 322 1249 1660  0  0
 220 600   0 325 1248 1661  0  0
 221 161   7 326 1249 1660  0  0
 222 600   0 329 1248 1661  0  0
 223 161  15 330 1249 1660  0  0
 224 600   0 333 1248 1661  0  0
 225 161   8 334 1249 1660  0  0
 226 600   0 337 1248 1661  0  0
 227 161  12 338 1249 1660  0  0
 228 600   0 341 1248 1661  0  0
 229 161   3 342 1249 1660  0  0
 230 600   0 345 1248 1661  0  0
 231 161   5 346 1249 1660  0  0
 232 600   0 349 1248 1661  0  0
 233 161  16 350 1249 1660  0  0
 234 600   0 353 1248 1661  0  0
 235 161  14 354 1249 1660  0  0
 236 600   0 357 1248 1661  0  0
 237 161   2 358 1249 1660  0  0
 238 600   0 361 1248 1661  0  0
 239 161  13 362 1249 1660  0  0
 240 600   0 365 1248 1661  0  0
 241 161  15 366 1249 1660  0  0
 242 600   0 369 1248 1661  0  0
 243 161   2 370 1249 1660  0  0
 244 600   0 373 1248 1661  0  0
 245 161   6 374 1249 1660  0  0
 246 600   0 377 1248 1661  0  0
 247 161  11 378 1249 1660  0  0
 248 600   0 381 1248 1661  0  0
 249 161   5 382 1249 1660  0  0
 250 600   0 385 1248 1661  0  0
 251 161  14 386 1249 1660  0  0
[RF]
1      194.444 834 835 836 50 1410 0 0 0 0 e
2      194.444 834 835 836 50 1410 0 0 0 0.872665 e
3      194.444 834 835 836 50 1410 0 0 0 2.61799 e
4      194.444 834 835 836 50 1410 0 0 0 5.23599 e
5      194.444 834 835 836 50 1410 0 0 0 2.44346 e
6      194.444 834 835 836 50 1410 0 0 0 0.523599 e
7      194.444 834 835 836 50 1410 0 0 0 5.75959 e
8      194.444 834 835 836 50 1410 0 0 0 5.58505 e
9      194.444 834 835 836 50 1410 0 0 0 1.5708 e
10      194.444 834 835 836 50 1410 0 0 0 4.01426 e
11      194.444 834 835 836 50 1410 0 0 0 1.0472 e
12      194.444 834 835 836 50 1410 0 0 0 3.66519 e
13      194.444 834 835 836 50 1410 0 0 0 4.18879 e
14      194.444 834 835 836 50 1410 0 0 0 4.71239 e
15      194.444 834 835 836 50 1410 0 0 0 2.0944 e
16      194.444 834 835 836 50 1410 0 0 0 3.14159 e

# Format of arbitrary gradients:
#   time_shape_id of 0 means default timing (stepping with grad_raster starting at 1/2 of grad_raster)
# id amplitude first last amp_shape_id time_shape_id delay
# ..      Hz/m  Hz/m Hz/m        ..         ..          us
[GRADIENTS]
3       982949            0       340608 1 0 0
4   1.2552e+06       340608            0 2 3 0
7       970978            0       340608 4 0 0
8  1.22773e+06       340608            0 5 6 0
11       959006            0       340608 7 0 0
12  1.22969e+06       340608            0 8 9 0
15       947035            0       340608 10 0 0
16  1.23169e+06       340608            0 11 12 0
19       935063            0       340608 13 0 0
20  1.23373e+06       340608            0 14 15 0
23       923092            0       340608 16 0 0
24   1.2059e+06       340608            0 17 18 0
27       911120            0       340608 19 0 0
28  1.19482e+06       340608            0 20 18 0
31       899149            0       340608 21 0 0
32  1.19647e+06       340608            0 22 23 0
35       887177            0       340608 24 0 0
36  1.19815e+06       340608            0 25 26 0
39       875205            0       340608 27 0 0
40  1.19987e+06       340608            0 28 29 0
43       863234            0       340608 30 0 0
44   1.1718e+06       340608            0 31 32 0
47       851262            0       340608 33 0 0
48  1.17323e+06       340608            0 34 35 0
51       839291            0       340608 36 0 0
52  1.17469e+06       340608            0 37 38 0
55       827319            0       340608 39 0 0
56  1.17619e+06       340608            0 40 41 0
59       815348            0       340608 42 0 0
60  1.16449e+06       340608            0 43 41 0
63       803376            0       340608 44 0 0
64  1.13619e+06       340608            0 45 46 0
67       791404            0       340608 47 0 0
68  1.13725e+06       340608            0 48 49 0
71       779433            0       340608 50 0 0
72  1.13834e+06       340608            0 51 52 0
75       767461            0       340608 53 0 0
76  1.13945e+06       340608            0 54 55 0
79       755490            0       340608 56 0 0
80  1.11079e+06       340608            0 57 58 0
83       743518            0       340608 59 0 0
84  1.11159e+06       340608            0 60 61 0
87       731547            0       340608 62 0 0
88   1.1124e+06       340608            0 63 64 0
91       719575            0       340608 65 0 0
92  1.11323e+06       340608            0 66 67 0
95       707604            0       340608 68 0 0
96  1.08421e+06       340608            0 69 70 0
99       695632            0       340608 71 0 0
100  1.08471e+06       340608            0 72 73 0
103       683660            0       340608 74 0 0
104  1.08523e+06       340608            0 75 76 0
107       671689            0       340608 77 0 0
108  1.08575e+06       340608            0 78 79 0
111       659717            0       340608 80 0 0
112   1.0732e+06       340608            0 81 79 0
115       647746            0       340608 82 0 0
116  1.04397e+06       340608            0 83 84 0
119       635774            0       340608 85 0 0
120    1.044e+06       340608            0 86 87 0
123       623803            0       340608 88 0 0
124  1.04403e+06       340608            0 89 90 0
127       611831            0       340608 91 0 0
128  1.04405e+06       340608            0 92 93 0
131       599860            0       340608 94 0 0
132  1.01447e+06       340608            0 95 96 0
135       587888            0       340608 97 0 0
136  1.01413e+06       340608            0 98 99 0
139       575916            0       340608 100 0 0
140  1.01379e+06       340608            0 101 102 0
143       563945            0       340608 103 0 0
144  1.01343e+06       340608            0 104 105 0
147       551973            0       340608 106 0 0
148       983486       340608            0 107 108 0
151       540002            0       340608 109 0 0
152       982750       340608            0 110 111 0
155       528030            0       340608 112 0 0
156       981994       340608            0 113 114 0
159       516059            0       340608 115 0 0
160       964273       340608            0 116 117 0
163       504087            0       340608 118 0 0
164       963268       340608            0 119 120 0
167       492115            0       340608 121 0 0
168       962236       340608            0 122 123 0
171       480144            0       340608 124 0 0
172       961177       340608            0 125 126 0
175       468172            0       340608 127 0 0
176       930342       340608            0 128 129 0
179       456201            0       340608 130 0 0
180       928858       340608            0 131 132 0
183       444229            0       340608 133 0 0
184       927333       340608            0 134 135 0
187       432258            0       340608 136 0 0
188       925767       340608            0 137 138 0
191       420286            0       340608 139 0 0
192       894577       340608            0 140 141 0
195       408315            0       340608 142 0 0
196       892562       340608            0 143 144 0
199       396343            0       340608 145 0 0
200       903034       340608            0 146 147 0
203       384371            0       340608 148 0 0
204       871293       340608            0 149 150 0
207       372400            0       340608 151 0 0
208       868894       340608            0 152 153 0
211       360428            0       340608 154 0 0
212       866425       340608            0 155 156 0
215       348457            0       340608 157 0 0
216       863886       340608            0 158 159 0
219       340608            0       340608 160 0 0
220       831798       340608            0 161 162 0
223       340608            0       340608 163 0 0
224       840944       340608            0 164 165 0
227       340608            0       340608 166 0 0
228       837948       340608            0 167 168 0
231       340608            0       340608 169 0 0
232       805298       340608            0 170 171 0
235       340608            0       340608 172 0 0
236       801770       340608            0 173 174 0
239       340608            0       340608 175 0 0
240       810414       340608            0 176 177 0
243       340608            0       340608 178 0 0
244       777191       340608            0 179 180 0
247       340608            0       340608 181 0 0
248       773122       340608            0 182 183 0
251       340608            0       340608 184 0 0
252       781132       340608            0 185 186 0
255       340608            0       340608 187 0 0
256       747328       340608            0 188 189 0
259       340608            0       340608 190 0 0
260       742656       340608            0 191 192 0
263       340608            0       340608 193 0 0
264       749929       340608            0 194 195 0
267       340608            0       340608 196 0 0
268       715539       340608            0 197 198 0
271       340608            0       340608 199 0 0
272       710192       340608            0 200 201 0
275       340608            0       340608 202 0 0
276       716611       340608            0 203 204 0
279       340608            0       340608 205 0 0
280       681630       340608            0 206 207 0
283       340608            0       340608 208 0 0
284       687175       340608            0 209 210 0
287       340608            0       340608 211 0 0
288       680956       340608            0 212 213 0
291       340608            0       340608 214 0 0
292       656705       340608            0 215 216 0
295       340608            0       340608 217 0 0
296       649831       340608            0 218 219 0
299       340608            0       340608 220 0 0
300       625147       340608            0 221 222 0
303       340608            0       340608 223 0 0
304       629011       340608            0 224 225 0
307       340608            0       340608 226 0 0
308       621225       340608            0 227 228 0
311       340608            0       340608 229 0 0
312       595144       340608            0 230 231 0
315       340608            0       340608 232 0 0
316       598058       340608            0 233 234 0
319       340608            0       340608 235 0 0
320       559975       340608            0 236 237 0
323       340608            0       340608 238 0 0
324       561541       340608            0 239 240 0
327       340608            0       340608 241 0 0
328       533895       340608            0 242 243 0
331      -340608            0       340608 244 0 0
332       534439       340608            0 245 246 0
335      -340608            0       340608 247 0 0
336       505642       340608            0 248 249 0
339      -340608            0       340608 250 0 0
340       504982       340608            0 251 252 0
343      -340608            0       340608 253 0 0
344       474932       340608            0 254 255 0
347      -340608            0       340608 256 0 0
348       472846       340608            0 257 258 0
351      -340608            0       340608 259 0 0
352       441430       340608            0 260 261 0
355      -340608            0       340608 262 0 0
356       448324       340608            0 263 264 0
359      -340608            0       340608 265 0 0
360       414610       340608            0 266 267 0
363      -340608            0       340608 268 0 0
364       409162       340608            0 269 270 0
367      -340608            0       340608 271 0 0
368       383554       340608            0 272 273 0
371      -340608            0       340608 274 0 0
372       356562       340608            0 275 276 0
375      -340608            0       340608 277 0 0
376       347175       340608            0 278 279 0
379      -340608            0       340608 280 0 0
380       340608       340608            0 281 282 0
383      -340608            0       340608 283 0 0
384       340608       340608            0 284 285 0
387      -340608            0       340608 286 0 0
388       340608       340608            0 287 288 0
391      -340608            0       340608 289 0 0
392       340608       340608            0 290 291 0
395      -340608            0       340608 292 0 0
396       340608       340608            0 293 294 0
399      -340608            0       340608 295 0 0
400       340608       340608            0 296 297 0
403      -340608            0       340608 298 0 0
404       340608       340608            0 299 300 0
407      -340608            0       340608 301 0 0
408       340608       340608            0 302 303 0
411      -340608            0       340608 304 0 0
412       362866       340608            0 305 306 0
415      -340608            0       340608 307 0 0
416       340608       340608            0 308 309 0
419      -340608            0       340608 310 0 0
420       361173       340608            0 311 312 0
423      -340608            0       340608 313 0 0
424       421238       340608            0 314 315 0
427      -340608            0       340608 316 0 0
428       360015       340608            0 317 318 0
431      -340608            0       340608 319 0 0
432       394097       340608            0 320 321 0
435      -340608            0       340608 322 0 0
436       421101       340608            0 323 324 0
439      -340608            0       340608 325 0 0
440       452967       340608            0 326 327 0
443      -340608            0       340608 328 0 0
444       453902       340608            0 329 330 0
447      -349854            0       340608 331 0 0
448       481945       340608            0 332 333 0
451      -361826            0       340608 334 0 0
452       484825       340608            0 335 336 0
455      -373798            0       340608 337 0 0
456       510790       340608            0 338 339 0
459      -385769            0       340608 340 0 0
460       511483       340608            0 341 342 0
463      -397741            0       340608 343 0 0
464       542624       340608            0 344 345 0
467      -409712            0       340608 346 0 0
468       541171       340608            0 347 348 0
471      -421684            0       340608 349 0 0
472       539900       340608            0 350 351 0
475      -433655            0       340608 352 0 0
476       601905       340608            0 353 354 0
479      -445627            0       340608 355 0 0
480       605004       340608            0 356 357 0
483      -457598            0       340608 358 0 0
484       626912       340608            0 359 360 0
487      -469570            0       340608 361 0 0
488       602939       340608            0 362 363 0
491      -481542            0       340608 364 0 0
492       605664       340608            0 365 366 0
495      -493513            0       340608 367 0 0
496       662462       340608            0 368 369 0
499      -505485            0       340608 370 0 0
500       663535       340608            0 371 372 0
503      -517456            0       340608 373 0 0
504       664549       340608            0 374 375 0
507      -529428            0       340608 376 0 0
508       665509       340608            0 377 378 0
511      -541399            0       340608 379 0 0
512       720855       340608            0 380 381 0
515      -553371            0       340608 382 0 0
516       720334       340608            0 383 384 0
519      -565342            0       340608 385 0 0
520       719840       340608            0 386 387 0
523      -577314            0       340608 388 0 0
524       755283       340608            0 389 390 0
527      -589286            0       340608 391 0 0
528       753927       340608            0 392 393 0
531      -601257            0       340608 394 0 0
532       752638       340608            0 395 396 0
535      -613229            0       340608 397 0 0
536       786352       340608            0 398 399 0
539      -625200            0       340608 400 0 0
540       784321       340608            0 401 402 0
543      -637172            0       340608 403 0 0
544       782385       340608            0 404 405 0
547      -649143            0       340608 406 0 0
548       814530       340608            0 407 408 0
551      -661115            0       340608 409 0 0
552       811952       340608            0 410 411 0
555      -673087            0       340608 412 0 0
556       809487       340608            0 413 414 0
559      -685058            0       340608 415 0 0
560       840205       340608            0 416 417 0
563      -697030            0       340608 418 0 0
564       819367       340608            0 419 420 0
567      -709001            0       340608 421 0 0
568       848777       340608            0 422 423 0
571      -720973            0       340608 424 0 0
572       845700       340608            0 425 426 0
575      -732944            0       340608 427 0 0
576       842748       340608            0 428 429 0
579      -744916            0       340608 430 0 0
580       870958       340608            0 431 432 0
583      -756887            0       340608 433 0 0
584       878314       340608            0 434 435 0
587      -768859            0       340608 436 0 0
588       906524       340608            0 437 438 0
591      -780831            0       340608 439 0 0
592       902414       340608            0 440 441 0
595      -792802            0       340608 442 0 0
596       898466       340608            0 443 444 0
599      -804774            0       340608 445 0 0
600       907770       340608            0 446 447 0
603      -816745            0       340608 448 0 0
604       903870       340608            0 449 450 0
607      -828717            0       340608 451 0 0
608       929951       340608            0 452 453 0
611      -840688            0       340608 454 0 0
612       936751       340608            0 455 456 0
615      -852660            0       340608 457 0 0
616       962832       340608            0 458 459 0
619      -864632            0       340608 460 0 0
620       940567       340608            0 461 462 0
623      -876603            0       340608 463 0 0
624       965699       340608            0 464 465 0
627      -888575            0       340608 466 0 0
628       960973       340608            0 467 468 0
631      -900546            0       340608 469 0 0
632       997385       340608            0 470 471 0
635      -912518            0       340608 472 0 0
636       992093       340608            0 473 474 0
639      -924489            0       340608 475 0 0
640       998939       340608            0 476 477 0
643      -936461            0       340608 478 0 0
644       993803       340608            0 479 480 0
647      -948432            0       340608 481 0 0
648  1.02951e+06       340608            0 482 483 0
651      -960404            0       340608 484 0 0
652  1.02385e+06       340608            0 485 486 0
655      -972376            0       340608 487 0 0
656  1.02992e+06       340608            0 488 489 0
659      -984347            0       340608 490 0 0
660  1.02444e+06       340608            0 491 492 0
663      -996319            0       340608 493 0 0
664  1.05946e+06       340608            0 494 495 0
667 -1.00829e+06            0       340608 496 0 0
668  1.05349e+06       340608            0 497 498 0
671 -1.02026e+06            0       340608 499 0 0
672  1.05888e+06       340608            0 500 501 0
675 -1.03223e+06            0       340608 502 0 0
676  1.05311e+06       340608            0 503 504 0
679  -1.0442e+06            0       340608 505 0 0
680  1.08745e+06       340608            0 506 507 0
683 -1.05618e+06            0       340608 508 0 0
684  1.08122e+06       340608            0 509 510 0
687 -1.06815e+06            0       340608 511 0 0
688  1.08599e+06       340608            0 512 513 0
691 -1.08012e+06            0       340608 514 0 0
692  1.09172e+06       340608            0 515 516 0
695 -1.09209e+06            0       340608 517 0 0
696  1.11366e+06       340608            0 518 519 0
699 -1.10406e+06            0       340608 520 0 0
700  1.09018e+06       340608            0 521 522 0
703 -1.11603e+06            0       340608 523 0 0
704  1.11144e+06       340608            0 524 525 0
707 -1.12801e+06            0       340608 526 0 0
708  1.11699e+06       340608            0 527 528 0
711 -1.13998e+06            0       340608 529 0 0
712  1.12101e+06       340608            0 530 531 0
715 -1.15195e+06            0       340608 532 0 0
716  1.11474e+06       340608            0 533 534 0
719 -1.16392e+06            0       340608 535 0 0
720  1.14741e+06       340608            0 536 537 0
723 -1.17589e+06            0       340608 538 0 0
724  1.15092e+06       340608            0 539 540 0
727 -1.18786e+06            0       340608 541 0 0
728   1.1443e+06       340608            0 542 543 0
731 -1.19984e+06            0       340608 544 0 0
732  1.17693e+06       340608            0 545 546 0
