# Pulseq sequence file
# Created by MATLAB mr toolbox

[VERSION]
major 1
minor 5
revision 1

[DEFINITIONS]
ACS_Pairs 0 
AdcRasterTime 1e-07 
BlockDurationRaster 1e-05 
FOV 0.192 0.256 0.256 
FlipAngle 7 
GradientRasterTime 1e-05 
Name mprage_3d_wave_sin_cos_152x200x256_R1_2_R2_3_ACS1_0_ACS2_0_os4_amp8_cycles10_SAG_skyra 
Nx 152 
Ny 200 
Nz 256 
OrientationMapping SAG 
PE1_ACS 0 
PE1_ACSTargetLines 0 
PE1_ImgLines 76 
PE1_R 2 
PE2_ACS 0 
PE2_ACSTargetLines 0 
PE2_ImgLines 67 
PE2_R 3 
PE2_Squeeze_Img 2 
PhaseResolution 0.78125 
RadiofrequencyRasterTime 1e-06 
ReadoutOversamplingFactor 4 
ReceiverGainHigh 1 
SliceThickness 0.00126315789 
TR 2.5 
TotalDuration 85 
kSpaceCenterLine 100 
kSpaceCenterPartition 76 
ro_os 4 

# Format of blocks:
# NUM DUR RF  GX  GY  GZ  ADC  EXT
[BLOCKS]
    1 1044   2   0   0   0  0  0
    2 53019   0   0 705   0  0  0
    3 161   1   0   0   0  0  0
    4 600   0   1 307 707  1  5
    5 161   3   2 308 706  0  0
    6 600   0   1 313 707  2  7
    7 161   4   2 314 706  0  0
    8 600   0   5 307 707  3 10
    9 161   5   6 308 706  0  0
   10 600   0   5 313 707  4 13
   11 161   6   6 314 706  0  0
   12 600   0   9 307 707  5 14
   13 161   7  10 308 706  0  0
   14 600   0   9 313 707  6 15
   15 161   8  10 314 706  0  0
   16 600   0  13 307 707  7 16
   17 161   9  14 308 706  0  0
   18 600   0  13 313 707  8 17
   19 161   1  14 314 706  0  0
   20 600   0  17 307 707  1 18
   21 161  10  18 308 706  0  0
   22 600   0  17 313 707  9 19
   23 161  11  18 314 706  0  0
   24 600   0  21 307 707 10 20
   25 161  12  22 308 706  0  0
   26 600   0  21 313 707 11 21
   27 161   5  22 314 706  0  0
   28 600   0  25 307 707  4 22
   29 161  11  26 308 706  0  0
   30 600   0  25 313 707 10 23
   31 161  13  26 314 706  0  0
   32 600   0  29 307 707 12 24
   33 161  14  30 308 706  0  0
   34 600   0  29 313 707 13 25
   35 161   9  30 314 706  0  0
   36 600   0  33 307 707  8 26
   37 161  10  34 308 706  0  0
   38 600   0  33 313 707  9 27
   39 161  15  34 314 706  0  0
   40 600   0  37 307 707 14 28
   41 161   6  38 308 706  0  0
   42 600   0  37 313 707  5 29
   43 161  12  38 314 706  0  0
   44 600   0  41 307 707 11 30
   45 161   7  42 308 706  0  0
   46 600   0  41 313 707  6 31
   47 161   3  42 314 706  0  0
   48 600   0  45 307 707  2 32
   49 161  16  46 308 706  0  0
   50 600   0  45 313 707 15 33
   51 161  14  46 314 706  0  0
   52 600   0  49 307 707 13 34
   53 161   3  50 308 706  0  0
   54 600   0  49 313 707  2 35
   55 161  15  50 314 706  0  0
   56 600   0  53 307 707 14 36
   57 161  17  54 308 706  0  0
   58 600   0  53 313 707 16 37
   59 161   6  54 314 706  0  0
   60 600   0  57 307 707  5 38
   61 161   4  58 308 706  0  0
   62 600   0  57 313 707  3 39
   63 161  13  58 314 706  0  0
   64 600   0  61 307 707 12 40
   65 161   9  62 308 706  0  0
   66 600   0  61 313 707  8 41
   67 161  16  62 314 706  0  0
   68 600   0  65 307 707 15 42
   69 161   8  66 308 706  0  0
   70 600   0  65 313 707  7 43
   71 161  11  66 314 706  0  0
   72 600   0  69 307 707 10 44
   73 161  17  70 308 706  0  0
   74 600   0  69 313 707 16 45
   75 161  17  70 314 706  0  0
   76 600   0  73 307 707 16 46
   77 161  11  74 308 706  0  0
   78 600   0  73 313 707 10 47
   79 161   8  74 314 706  0  0
   80 600   0  77 307 707  7 48
   81 161  16  78 308 706  0  0
   82 600   0  77 313 707 15 49
   83 161   9  78 314 706  0  0
   84 600   0  81 307 707  8 50
   85 161  13  82 308 706  0  0
   86 600   0  81 313 707 12 51
   87 161   4  82 314 706  0  0
   88 600   0  85 307 707  3 52
   89 161   6  86 308 706  0  0
   90 600   0  85 313 707  5 53
   91 161  17  86 314 706  0  0
   92 600   0  89 307 707 16 54
   93 161  15  90 308 706  0  0
   94 600   0  89 313 707 14 55
   95 161   3  90 314 706  0  0
   96 600   0  93 307 707  2 56
   97 161  14  94 308 706  0  0
   98 600   0  93 313 707 13 57
   99 161  16  94 314 706  0  0
  100 600   0  97 307 707 15 58
  101 161   3  98 308 706  0  0
  102 600   0  97 313 707  2 59
  103 161   7  98 314 706  0  0
  104 600   0 101 307 707  6 60
  105 161  12 102 308 706  0  0
  106 600   0 101 313 707 11 61
  107 161   6 102 314 706  0  0
  108 600   0 105 307 707  5 62
  109 161  15 106 308 706  0  0
  110 600   0 105 313 707 14 63
  111 161  10 106 314 706  0  0
  112 600   0 109 307 707  9 64
  113 161   9 110 308 706  0  0
  114 600   0 109 313 707  8 65
  115 161  14 110 314 706  0  0
  116 600   0 113 307 707 13 66
  117 161  13 114 308 706  0  0
  118 600   0 113 313 707 12 67
  119 161  11 114 314 706  0  0
  120 600   0 117 307 707 10 68
  121 161   5 118 308 706  0  0
  122 600   0 117 313 707  4 69
  123 161  12 118 314 706  0  0
  124 600   0 121 307 707 11 70
  125 161  11 122 308 706  0  0
  126 600   0 121 313 707 10 71
  127 161  10 122 314 706  0  0
  128 600   0 125 307 707  9 72
  129 161   1 126 308 706  0  0
  130 600   0 125 313 707  1 73
  131 161   9 126 314 706  0  0
  132 600   0 129 307 707  8 74
  133 161   8 130 308 706  0  0
  134 600   0 129 313 707  7 75
  135 161   7 130 314 706  0  0
  136 600   0 133 307 707  6 76
  137 161   6 134 308 706  0  0
  138 600   0 133 313 707  5 77
  139 161   5 134 314 706  0  0
  140 600   0 137 307 707  4 78
  141 161   4 138 308 706  0  0
  142 600   0 137 313 707  3 79
  143 161   3 138 314 706  0  0
  144 600   0 141 307 707  2 80
  145 161   1 142 308 706  0  0
  146 600   0 141 313 707  1 81
  147 161   1 142 314 706  0  0
  148 600   0 145 307 707  1 82
  149 161   3 146 308 706  0  0
  150 600   0 145 313 707  2 83
  151 161   4 146 314 706  0  0
  152 600   0 149 307 707  3 84
  153 161   5 150 308 706  0  0
  154 600   0 149 313 707  4 85
  155 161   6 150 314 706  0  0
  156 600   0 153 307 707  5 86
  157 161   7 154 308 706  0  0
  158 600   0 153 313 707  6 87
  159 161   8 154 314 706  0  0
  160 600   0 157 307 707  7 88
  161 161   9 158 308 706  0  0
  162 600   0 157 313 707  8 89
  163 161   1 158 314 706  0  0
  164 600   0 161 307 707  1 90
  165 161  10 162 308 706  0  0
  166 600   0 161 313 707  9 91
  167 161  11 162 314 706  0  0
  168 600   0 165 307 707 10 92
  169 161  12 166 308 706  0  0
  170 600   0 165 313 707 11 93
  171 161   5 166 314 706  0  0
  172 600   0 169 307 707  4 94
  173 161  11 170 308 706  0  0
  174 600   0 169 313 707 10 95
  175 161  13 170 314 706  0  0
  176 600   0 173 307 707 12 96
  177 161  14 174 308 706  0  0
  178 600   0 173 313 707 13 97
  179 161   9 174 314 706  0  0
  180 600   0 177 307 707  8 98
  181 161  10 178 308 706  0  0
  182 600   0 177 313 707  9 99
  183 161  15 178 314 706  0  0
  184 600   0 181 307 707 14 100
  185 161   6 182 308 706  0  0
  186 600   0 181 313 707  5 101
  187 161  12 182 314 706  0  0
  188 600   0 185 307 707 11 102
  189 161   7 186 308 706  0  0
  190 600   0 185 313 707  6 103
  191 161   3 186 314 706  0  0
  192 600   0 189 307 707  2 104
  193 161  16 190 308 706  0  0
  194 600   0 189 313 707 15 105
  195 161  14 190 314 706  0  0
  196 600   0 193 307 707 13 106
  197 161   3 194 308 706  0  0
  198 600   0 193 313 707  2 107
  199 161  15 194 314 706  0  0
  200 600   0 197 307 707 14 108
  201 161  17 198 308 706  0  0
  202 600   0 197 313 707 16 109
  203 161   6 198 314 706  0  0
  204 600   0 201 307 707  5 110
  205 161   4 202 308 706  0  0
  206 600   0 201 313 707  3 111
  207 161  13 202 314 706  0  0
  208 600   0 205 307 707 12 112
  209 161   9 206 308 706  0  0
  210 600   0 205 313 707  8 113
  211 161  16 206 314 706  0  0
  212 600   0 209 307 707 15 114
  213 161   8 210 308 706  0  0
  214 600   0 209 313 707  7 115
  215 161  11 210 314 706  0  0
  216 600   0 213 307 707 10 116
  217 161  17 214 308 706  0  0
  218 600   0 213 313 707 16 117
  219 161  17 214 314 706  0  0
  220 600   0 217 307 707 16 118
  221 161  11 218 308 706  0  0
  222 600   0 217 313 707 10 119
  223 161   8 218 314 706  0  0
  224 600   0 221 307 707  7 120
  225 161  16 222 308 706  0  0
  226 600   0 221 313 707 15 121
  227 161   9 222 314 706  0  0
  228 600   0 225 307 707  8 122
  229 161  13 226 308 706  0  0
  230 600   0 225 313 707 12 123
  231 161   4 226 314 706  0  0
  232 600   0 229 307 707  3 124
  233 161   6 230 308 706  0  0
  234 600   0 229 313 707  5 125
  235 161  17 230 314 706  0  0
  236 600   0 233 307 707 16 126
  237 161  15 234 308 706  0  0
  238 600   0 233 313 707 14 127
  239 161   3 234 314 706  0  0
  240 600   0 237 307 707  2 128
  241 161  14 238 308 706  0  0
  242 600   0 237 313 707 13 129
  243 161  16 238 314 706  0  0
  244 600   0 241 307 707 15 130
  245 161   3 242 308 706  0  0
  246 600   0 241 313 707  2 131
  247 161   7 242 314 706  0  0
  248 600   0 245 307 707  6 132
  249 161  12 246 308 706  0  0
  250 600   0 245 313 707 11 133
  251 161   6 246 314 706  0  0
  252 600   0 249 307 707  5 134
  253 161  15 250 308 706  0  0
  254 600   0 249 313 707 14 135
  255 161  10 250 314 706  0  0
  256 600   0 253 307 707  9 136
  257 161   9 254 308 706  0  0
  258 600   0 253 313 707  8 137
  259 161  14 254 314 706  0  0
  260 600   0 257 307 707 13 138
  261 161  13 258 308 706  0  0
  262 600   0 257 313 707 12 139
  263 161  11 258 314 706  0  0
  264 600   0 261 307 707 10 140
  265 161   5 262 308 706  0  0
  266 600   0 261 313 707  4 141
  267 161  12 262 314 706  0  0
  268 600   0 265 307 707 11 142
  269 161  11 266 308 706  0  0
  270 600   0 265 313 707 10 143
  271 161  10 266 314 706  0  0
  272 600   0 269 307 707  9 144
  273 161   1 270 308 706  0  0
  274 600   0 269 313 707  1 145
  275 161   9 270 314 706  0  0
  276 600   0 273 307 707  8 146
  277 161   8 274 308 706  0  0
  278 600   0 273 313 707  7 147
  279 161   7 274 314 706  0  0
  280 600   0 277 307 707  6 148
  281 161   6 278 308 706  0  0
  282 600   0 277 313 707  5 149
  283 161   5 278 314 706  0  0
  284 600   0 281 307 707  4 150
  285 161   4 282 308 706  0  0
  286 600   0 281 313 707  3 151
[RF]
1      194.444 660 661 662 50 1410 0 0 0 0 e
2      563.681 663 664 665 5125 100 0 0 0 0 i
3      194.444 660 661 662 50 1410 0 0 0 0.872665 e
4      194.444 660 661 662 50 1410 0 0 0 2.61799 e
5      194.444 660 661 662 50 1410 0 0 0 5.23599 e
6      194.444 660 661 662 50 1410 0 0 0 2.44346 e
7      194.444 660 661 662 50 1410 0 0 0 0.523599 e
8      194.444 660 661 662 50 1410 0 0 0 5.75959 e
9      194.444 660 661 662 50 1410 0 0 0 5.58505 e
10      194.444 660 661 662 50 1410 0 0 0 1.5708 e
11      194.444 660 661 662 50 1410 0 0 0 4.01426 e
12      194.444 660 661 662 50 1410 0 0 0 1.0472 e
13      194.444 660 661 662 50 1410 0 0 0 3.66519 e
14      194.444 660 661 662 50 1410 0 0 0 4.18879 e
15      194.444 660 661 662 50 1410 0 0 0 4.71239 e
16      194.444 660 661 662 50 1410 0 0 0 2.0944 e
17      194.444 660 661 662 50 1410 0 0 0 3.14159 e

# Format of arbitrary gradients:
#   time_shape_id of 0 means default timing (stepping with grad_raster starting at 1/2 of grad_raster)
# id amplitude first last amp_shape_id time_shape_id delay
# ..      Hz/m  Hz/m Hz/m        ..         ..          us
[GRADIENTS]
1       743518            0       340608 1 0 0
2  1.11159e+06       340608            0 2 3 0
3       731547            0       340608 4 0 0
4   1.1124e+06       340608            0 5 6 0
5       719575            0       340608 7 0 0
6  1.11323e+06       340608            0 8 9 0
7       707604            0       340608 10 0 0
8  1.08421e+06       340608            0 11 12 0
9       695632            0       340608 13 0 0
10  1.08471e+06       340608            0 14 15 0
11       683660            0       340608 16 0 0
12  1.08523e+06       340608            0 17 18 0
13       671689            0       340608 19 0 0
14  1.08575e+06       340608            0 20 21 0
15       659717            0       340608 22 0 0
16   1.0732e+06       340608            0 23 21 0
17       647746            0       340608 24 0 0
18  1.04397e+06       340608            0 25 26 0
19       635774            0       340608 27 0 0
20    1.044e+06       340608            0 28 29 0
21       623803            0       340608 30 0 0
22  1.04403e+06       340608            0 31 32 0
23       611831            0       340608 33 0 0
24  1.04405e+06       340608            0 34 35 0
25       599860            0       340608 36 0 0
26  1.01447e+06       340608            0 37 38 0
27       587888            0       340608 39 0 0
28  1.01413e+06       340608            0 40 41 0
29       575916            0       340608 42 0 0
30  1.01379e+06       340608            0 43 44 0
31       563945            0       340608 45 0 0
32  1.01343e+06       340608            0 46 47 0
33       551973            0       340608 48 0 0
34       983486       340608            0 49 50 0
35       540002            0       340608 51 0 0
36       982750       340608            0 52 53 0
37       528030            0       340608 54 0 0
38       981994       340608            0 55 56 0
39       516059            0       340608 57 0 0
40       964273       340608            0 58 59 0
41       504087            0       340608 60 0 0
42       963268       340608            0 61 62 0
43       492115            0       340608 63 0 0
44       962236       340608            0 64 65 0
45       480144            0       340608 66 0 0
46       961177       340608            0 67 68 0
47       468172            0       340608 69 0 0
48       930342       340608            0 70 71 0
49       456201            0       340608 72 0 0
50       928858       340608            0 73 74 0
51       444229            0       340608 75 0 0
52       927333       340608            0 76 77 0
53       432258            0       340608 78 0 0
54       925767       340608            0 79 80 0
55       420286            0       340608 81 0 0
56       894577       340608            0 82 83 0
57       408315            0       340608 84 0 0
58       892562       340608            0 85 86 0
59       396343            0       340608 87 0 0
60       903034       340608            0 88 89 0
61       384371            0       340608 90 0 0
62       871293       340608            0 91 92 0
63       372400            0       340608 93 0 0
64       868894       340608            0 94 95 0
65       360428            0       340608 96 0 0
66       866425       340608            0 97 98 0
67       348457            0       340608 99 0 0
68       863886       340608            0 100 101 0
69       340608            0       340608 102 0 0
70       831798       340608            0 103 104 0
71       340608            0       340608 105 0 0
72       840944       340608            0 106 107 0
73       340608            0       340608 108 0 0
74       837948       340608            0 109 110 0
75       340608            0       340608 111 0 0
76       805298       340608            0 112 113 0
77       340608            0       340608 114 0 0
78       801770       340608            0 115 116 0
79       340608            0       340608 117 0 0
80       810414       340608            0 118 119 0
81       340608            0       340608 120 0 0
82       777191       340608            0 121 122 0
83       340608            0       340608 123 0 0
84       773122       340608            0 124 125 0
85       340608            0       340608 126 0 0
86       781132       340608            0 127 128 0
87       340608            0       340608 129 0 0
88       747328       340608            0 130 131 0
89       340608            0       340608 132 0 0
90       742656       340608            0 133 134 0
91       340608            0       340608 135 0 0
92       749929       340608            0 136 137 0
93       340608            0       340608 138 0 0
94       715539       340608            0 139 140 0
95       340608            0       340608 141 0 0
96       710192       340608            0 142 143 0
97       340608            0       340608 144 0 0
98       716611       340608            0 145 146 0
99       340608            0       340608 147 0 0
100       681630       340608            0 148 149 0
101       340608            0       340608 150 0 0
102       687175       340608            0 151 152 0
103       340608            0       340608 153 0 0
104       680956       340608            0 154 155 0
105       340608            0       340608 156 0 0
106       656705       340608            0 157 158 0
107       340608            0       340608 159 0 0
108       649831       340608            0 160 161 0
109       340608            0       340608 162 0 0
110       625147       340608            0 163 164 0
111       340608            0       340608 165 0 0
112       629011       340608            0 166 167 0
113       340608            0       340608 168 0 0
114       621225       340608            0 169 170 0
115       340608            0       340608 171 0 0
116       595144       340608            0 172 173 0
117       340608            0       340608 174 0 0
118       598058       340608            0 175 176 0
119       340608            0       340608 177 0 0
120       559975       340608            0 178 179 0
121       340608            0       340608 180 0 0
122       561541       340608            0 181 182 0
123       340608            0       340608 183 0 0
124       533895       340608            0 184 185 0
125      -340608            0       340608 186 0 0
126       534439       340608            0 187 188 0
127      -340608            0       340608 189 0 0
128       505642       340608            0 190 191 0
129      -340608            0       340608 192 0 0
130       504982       340608            0 193 194 0
131      -340608            0       340608 195 0 0
132       474932       340608            0 196 197 0
133      -340608            0       340608 198 0 0
134       472846       340608            0 199 200 0
135      -340608            0       340608 201 0 0
136       441430       340608            0 202 203 0
137      -340608            0       340608 204 0 0
138       448324       340608            0 205 206 0
139      -340608            0       340608 207 0 0
140       414610       340608            0 208 209 0
141      -340608            0       340608 210 0 0
142       409162       340608            0 211 212 0
143      -340608            0       340608 213 0 0
144       383554       340608            0 214 215 0
145      -340608            0       340608 216 0 0
146       356562       340608            0 217 218 0
147      -340608            0       340608 219 0 0
148       347175       340608            0 220 221 0
149      -340608            0       340608 222 0 0
150       340608       340608            0 223 224 0
151      -340608            0       340608 225 0 0
152       340608       340608            0 226 227 0
153      -340608            0       340608 228 0 0
154       340608       340608            0 229 230 0
155      -340608            0       340608 231 0 0
156       340608       340608            0 232 233 0
157      -340608            0       340608 234 0 0
158       340608       340608            0 235 236 0
159      -340608            0       340608 237 0 0
160       340608       340608            0 238 239 0
161      -340608            0       340608 240 0 0
162       340608       340608            0 241 242 0
163      -340608            0       340608 243 0 0
164       340608       340608            0 244 245 0
165      -340608            0       340608 246 0 0
166       362866       340608            0 247 248 0
167      -340608            0       340608 249 0 0
168       340608       340608            0 250 251 0
169      -340608            0       340608 252 0 0
170       361173       340608            0 253 254 0
171      -340608            0       340608 255 0 0
172       421238       340608            0 256 257 0
173      -340608            0       340608 258 0 0
174       360015       340608            0 259 260 0
175      -340608            0       340608 261 0 0
176       394097       340608            0 262 263 0
177      -340608            0       340608 264 0 0
178       421101       340608            0 265 266 0
179      -340608            0       340608 267 0 0
180       452967       340608            0 268 269 0
181      -340608            0       340608 270 0 0
182       453902       340608            0 271 272 0
183      -349854            0       340608 273 0 0
184       481945       340608            0 274 275 0
185      -361826            0       340608 276 0 0
186       484825       340608            0 277 278 0
187      -373798            0       340608 279 0 0
188       510790       340608            0 280 281 0
189      -385769            0       340608 282 0 0
190       511483       340608            0 283 284 0
191      -397741            0       340608 285 0 0
192       542624       340608            0 286 287 0
193      -409712            0       340608 288 0 0
194       541171       340608            0 289 290 0
195      -421684            0       340608 291 0 0
196       539900       340608            0 292 293 0
197      -433655            0       340608 294 0 0
198       601905       340608            0 295 296 0
199      -445627            0       340608 297 0 0
200       605004       340608            0 298 299 0
201      -457598            0       340608 300 0 0
202       626912       340608            0 301 302 0
203      -469570            0       340608 303 0 0
204       602939       340608            0 304 305 0
205      -481542            0       340608 306 0 0
206       605664       340608            0 307 308 0
207      -493513            0       340608 309 0 0
208       662462       340608            0 310 311 0
209      -505485            0       340608 312 0 0
210       663535       340608            0 313 314 0
211      -517456            0       340608 315 0 0
212       664549       340608            0 316 317 0
213      -529428            0       340608 318 0 0
214       665509       340608            0 319 320 0
215      -541399            0       340608 321 0 0
216       720855       340608            0 322 323 0
217      -553371            0       340608 324 0 0
218       720334       340608            0 325 326 0
219      -565342            0       340608 327 0 0
220       719840       340608            0 328 329 0
221      -577314            0       340608 330 0 0
222       755283       340608            0 331 332 0
223      -589286            0       340608 333 0 0
224       753927       340608            0 334 335 0
225      -601257            0       340608 336 0 0
226       752638       340608            0 337 338 0
227      -613229            0       340608 339 0 0
228       786352       340608            0 340 341 0
229      -625200            0       340608 342 0 0
230       784321       340608            0 343 344 0
231      -637172            0       340608 345 0 0
232       782385       340608            0 346 347 0
233      -649143            0       340608 348 0 0
234       814530       340608            0 349 350 0
235      -661115            0       340608 351 0 0
236       811952       340608            0 352 353 0
237      -673087            0       340608 354 0 0
238       809487       340608            0 355 356 0
239      -685058            0       340608 357 0 0
240       840205       340608            0 358 359 0
241      -697030            0       340608 360 0 0
242       819367       340608            0 361 362 0
243      -709001            0       340608 363 0 0
244       848777       340608            0 364 365 0
245      -720973            0       340608 366 0 0
246       845700       340608            0 367 368 0
247      -732944            0       340608 369 0 0
248       842748       340608            0 370 371 0
249      -744916            0       340608 372 0 0
250       870958       340608            0 373 374 0
251      -756887            0       340608 375 0 0
252       878314       340608            0 376 377 0
253      -768859            0       340608 378 0 0
254       906524       340608            0 379 380 0
255      -780831            0       340608 381 0 0
256       902414       340608            0 382 383 0
257      -792802            0       340608 384 0 0
258       898466       340608            0 385 386 0
259      -804774            0       340608 387 0 0
260       907770       340608            0 388 389 0
261      -816745            0       340608 390 0 0
262       903870       340608            0 391 392 0
263      -828717            0       340608 393 0 0
264       929951       340608            0 394 395 0
265      -840688            0       340608 396 0 0
266       936751       340608            0 397 398 0
267      -852660            0       340608 399 0 0
268       962832       340608            0 400 401 0
269      -864632            0       340608 402 0 0
270       940567       340608            0 403 404 0
271      -876603            0       340608 405 0 0
272       965699       340608            0 406 407 0
273      -888575            0       340608 408 0 0
274       960973       340608            0 409 410 0
275      -900546            0       340608 411 0 0
276       997385       340608            0 412 413 0
277      -912518            0       340608 414 0 0
278       992093       340608            0 415 416 0
279      -924489            0       340608 417 0 0
280       998939       340608            0 418 419 0
281      -936461            0       340608 420 0 0
282       993803       340608            0 421 422 0
283      -948432            0       340608 423 0 0
284  1.02951e+06       340608            0 424 425 0
285      -960404            0       340608 426 0 0
286  1.02385e+06       340608            0 427 428 0
287      -972376            0       340608 429 0 0
288  1.02992e+06       340608            0 430 431 0
289      -984347            0       340608 432 0 0
290  1.02444e+06       340608            0 433 434 0
291      -996319            0       340608 435 0 0
292  1.05946e+06       340608            0 436 437 0
293 -1.00829e+06            0       340608 438 0 0
294  1.05349e+06       340608            0 439 440 0
295 -1.02026e+06            0       340608 441 0 0
296  1.05888e+06       340608            0 442 443 0
297 -1.03223e+06            0       340608 444 0 0
298  1.05311e+06       340608            0 445 446 0
299  -1.0442e+06            0       340608 447 0 0
300  1.08745e+06       340608            0 448 449 0
301 -1.05618e+06            0       340608 450 0 0
302  1.08122e+06       340608            0 451 452 0
303 -1.06815e+06            0       340608 453 0 0
304  1.08599e+06       340608            0 454 455 0
305       640369            0            0 456 0 0
307       633965            0            0 457 0 0
309       627561            0            0 458 0 0
311       621158            0            0 459 0 0
313       614754            0            0 460 0 0
315       608350            0            0 461 0 0
317       601947            0            0 462 0 0
319       595543            0            0 463 0 0
321       589139            0            0 464 0 0
323       582736            0            0 465 0 0
325       576332            0            0 466 0 0
327       569928            0            0 467 0 0
329       563525            0            0 468 0 0
331       557121            0            0 469 0 0
333       550717            0            0 470 0 0
335       544314            0            0 471 0 0
337       537910            0            0 472 0 0
339       531506            0            0 473 0 0
341       525102            0            0 474 0 0
343       518699            0            0 475 0 0
345       512295            0            0 476 0 0
347       505891            0            0 477 0 0
349       499488            0            0 478 0 0
351       493084            0            0 479 0 0
353       486680            0            0 480 0 0
355       480277            0            0 481 0 0
357       473873            0            0 482 0 0
359       467469            0            0 483 0 0
361       461066            0            0 484 0 0
363       454662            0            0 485 0 0
365       448258            0            0 486 0 0
367       441855            0            0 487 0 0
369       435451            0            0 488 0 0
371       429047            0            0 489 0 0
373       422643            0            0 490 0 0
375       416240            0            0 491 0 0
377       409836            0            0 492 0 0
379       403432            0            0 493 0 0
381       397029            0            0 494 0 0
383       390625            0            0 495 0 0
385       384221            0            0 496 0 0
387       377818            0            0 497 0 0
389       371414            0            0 498 0 0
391       365010            0            0 499 0 0
393       358607            0            0 500 0 0
395       352203            0            0 501 0 0
397       345799            0            0 502 0 0
399       340608            0            0 503 0 0
401       340608            0            0 504 0 0
403       340608            0            0 505 0 0
405       340608            0            0 506 0 0
407       340608            0            0 507 0 0
409       340608            0            0 508 0 0
411       340608            0            0 509 0 0
413       340608            0            0 510 0 0
415       340608            0            0 511 0 0
417       340608            0            0 512 0 0
419       340608            0            0 513 0 0
421       340608            0            0 514 0 0
423       340608            0            0 515 0 0
425       340608            0            0 516 0 0
427       340608            0            0 517 0 0
429       340608            0            0 518 0 0
431       340608            0            0 519 0 0
