# Pulseq sequence file
# Created by MATLAB mr toolbox

[VERSION]
major 1
minor 5
revision 1

[DEFINITIONS]
ACS_Pairs 0 
AdcRasterTime 1e-07 
BlockDurationRaster 1e-05 
ETL_Blocks_IMG 29 
ETL_CenterSlot 96 
ETL_DummySlots_IMG 332 
ETL_Efficiency_IMG 0.9625 
ETL_FillerPerKy_IMG 3 
ETL_Mode_IMG segmented 
ETL_RealSlots_IMG 5236 
ETL_SegLen_IMG 16 
ETL_SegmentsPerBlock_IMG 12 
ETL_SegmentsPerKy_IMG 5 
ETL_Target 192 
FOV 0.192 0.256 0.256 
FlipAngle 7 
GradientRasterTime 1e-05 
Name mprage_3d_wave_sin_cos_154x204x256_res1p25x1p25x1mm_ETL192_segmented_R1_2_R2_3_ACS1_0_ACS2_0_os4_amp8_cycles10_SAG_skyra 
Nx 154 
Ny 204 
Nz 256 
OrientationMapping SAG 
PE1_ACS 0 
PE1_ACSTargetLines 0 
PE1_ImgLines 77 
PE1_R 2 
PE2_ACS 0 
PE2_ACSTargetLines 0 
PE2_ImgLines 68 
PE2_R 3 
PhaseResolution 0.796875 
RadiofrequencyRasterTime 1e-06 
ReadoutOversamplingFactor 4 
ReceiverGainHigh 1 
RequestedResolutionX_mm 1.25 
RequestedResolutionY_mm 1.25 
RequestedResolutionZ_mm 1 
ResolutionX_mm 1.24675325 
ResolutionY_mm 1.25490196 
ResolutionZ_mm 1 
SliceThickness 0.00124675325 
TR 2.5 
TotalDuration 72.5 
kSpaceCenterLine 102 
kSpaceCenterPartition 77 
ro_os 4 

# Format of blocks:
# NUM DUR RF  GX  GY  GZ  ADC  EXT
[BLOCKS]
    1 1044   2   0   0   0  0  0
    2 36276   0   0 717   0  0  0
    3 161   1   0   0   0  0  0
    4 600   0 295 315 719  0  0
    5 161   3 296 316 718  0  0
    6 600   0 299 315 719  0  0
    7 161   4 300 316 718  0  0
    8 600   0 303 321 719  1  5
    9 161   5 304 322 718  0  0
   10 600   0 307 321 719  2  8
   11 161   6 308 322 718  0  0
   12 600   0   3 309 719  3 11
   13 161   7   4 310 718  0  0
   14 600   0   7 309 719  4 13
   15 161   8   8 310 718  0  0
   16 600   0  11 309 719  5 14
   17 161   9  12 310 718  0  0
   18 600   0  15 309 719  6 15
   19 161   1  16 310 718  0  0
   20 600   0  19 309 719  7 16
   21 161  10  20 310 718  0  0
   22 600   0   3 315 719  8 17
   23 161  11   4 316 718  0  0
   24 600   0   7 315 719  9 19
   25 161  12   8 316 718  0  0
   26 600   0  11 315 719 10 21
   27 161   5  12 316 718  0  0
   28 600   0  15 315 719  2 23
   29 161  11  16 316 718  0  0
   30 600   0  19 315 719  9 25
   31 161  13  20 316 718  0  0
   32 600   0   3 321 719 11 26
   33 161  14   4 322 718  0  0
   34 600   0   7 321 719 12 27
   35 161   9   8 322 718  0  0
   36 600   0  23 309 719  6 28
   37 161  10  24 310 718  0  0
   38 600   0  27 309 719  8 29
   39 161  15  28 310 718  0  0
   40 600   0  31 309 719 13 30
   41 161   6  32 310 718  0  0
   42 600   0  35 309 719  3 31
   43 161  12  36 310 718  0  0
   44 600   0  39 309 719 10 32
   45 161   7  40 310 718  0  0
   46 600   0  23 315 719  4 34
   47 161   3  24 316 718  0  0
   48 600   0  27 315 719 14 35
   49 161  16  28 316 718  0  0
   50 600   0  31 315 719 15 36
   51 161  14  32 316 718  0  0
   52 600   0  35 315 719 12 37
   53 161   3  36 316 718  0  0
   54 600   0  39 315 719 14 38
   55 161  15  40 316 718  0  0
   56 600   0  23 321 719 13 39
   57 161  17  24 322 718  0  0
   58 600   0  27 321 719 16 40
   59 161   6  28 322 718  0  0
   60 600   0  43 309 719  3 41
   61 161   4  44 310 718  0  0
   62 600   0  47 309 719  1 42
   63 161  13  48 310 718  0  0
   64 600   0  51 309 719 11 43
   65 161   9  52 310 718  0  0
   66 600   0  55 309 719  6 44
   67 161  16  56 310 718  0  0
   68 600   0  59 309 719 15 45
   69 161   8  60 310 718  0  0
   70 600   0  43 315 719  5 46
   71 161  11  44 316 718  0  0
   72 600   0  47 315 719  9 47
   73 161  17  48 316 718  0  0
   74 600   0  51 315 719 16 48
   75 161  17  52 316 718  0  0
   76 600   0  55 315 719 16 49
   77 161  11  56 316 718  0  0
   78 600   0  59 315 719  9 50
   79 161   8  60 316 718  0  0
   80 600   0  43 321 719  5 51
   81 161  16  44 322 718  0  0
   82 600   0  47 321 719 15 52
   83 161   9  48 322 718  0  0
   84 600   0  63 309 719  6 53
   85 161  13  64 310 718  0  0
   86 600   0  67 309 719 11 54
   87 161   4  68 310 718  0  0
   88 600   0  71 309 719  1 55
   89 161   6  72 310 718  0  0
   90 600   0  75 309 719  3 56
   91 161  17  76 310 718  0  0
   92 600   0  79 309 719 16 57
   93 161  15  80 310 718  0  0
   94 600   0  63 315 719 13 58
   95 161   3  64 316 718  0  0
   96 600   0  67 315 719 14 59
   97 161  14  68 316 718  0  0
   98 600   0  71 315 719 12 60
   99 161  16  72 316 718  0  0
  100 600   0  75 315 719 15 61
  101 161   3  76 316 718  0  0
  102 600   0  79 315 719 14 62
  103 161   7  80 316 718  0  0
  104 600   0  63 321 719  4 63
  105 161  12  64 322 718  0  0
  106 600   0  67 321 719 10 64
  107 161   6  68 322 718  0  0
  108 600   0  83 309 719  3 65
  109 161  15  84 310 718  0  0
  110 600   0  87 309 719 13 66
  111 161  10  88 310 718  0  0
  112 600   0  91 309 719  8 67
  113 161   9  92 310 718  0  0
  114 600   0  95 309 719  6 68
  115 161  14  96 310 718  0  0
  116 600   0  99 309 719 12 69
  117 161  13 100 310 718  0  0
  118 600   0  83 315 719 11 70
  119 161  11  84 316 718  0  0
  120 600   0  87 315 719  9 71
  121 161   5  88 316 718  0  0
  122 600   0  91 315 719  2 72
  123 161  12  92 316 718  0  0
  124 600   0  95 315 719 10 73
  125 161  11  96 316 718  0  0
  126 600   0  99 315 719  9 74
  127 161  10 100 316 718  0  0
  128 600   0  83 321 719  8 75
  129 161   1  84 322 718  0  0
  130 600   0  87 321 719  7 76
  131 161   9  88 322 718  0  0
  132 600   0 103 309 719  6 77
  133 161   8 104 310 718  0  0
  134 600   0 107 309 719  5 78
  135 161   7 108 310 718  0  0
  136 600   0 111 309 719  4 79
  137 161   6 112 310 718  0  0
  138 600   0 115 309 719  3 80
  139 161   5 116 310 718  0  0
  140 600   0 119 309 719  2 81
  141 161   4 120 310 718  0  0
  142 600   0 103 315 719  1 82
  143 161   3 104 316 718  0  0
  144 600   0 107 315 719 14 83
  145 161   1 108 316 718  0  0
  146 600   0 111 315 719  7 84
  147 161   1 112 316 718  0  0
  148 600   0 115 315 719  7 85
  149 161   3 116 316 718  0  0
  150 600   0 119 315 719 14 86
  151 161   4 120 316 718  0  0
  152 600   0 103 321 719  1 87
  153 161   5 104 322 718  0  0
  154 600   0 107 321 719  2 88
  155 161   6 108 322 718  0  0
  156 600   0 123 309 719  3 89
  157 161   7 124 310 718  0  0
  158 600   0 127 309 719  4 90
  159 161   8 128 310 718  0  0
  160 600   0 131 309 719  5 91
  161 161   9 132 310 718  0  0
  162 600   0 135 309 719  6 92
  163 161   1 136 310 718  0  0
  164 600   0 139 309 719  7 93
  165 161  10 140 310 718  0  0
  166 600   0 123 315 719  8 94
  167 161  11 124 316 718  0  0
  168 600   0 127 315 719  9 95
  169 161  12 128 316 718  0  0
  170 600   0 131 315 719 10 96
  171 161   5 132 316 718  0  0
  172 600   0 135 315 719  2 97
  173 161  11 136 316 718  0  0
  174 600   0 139 315 719  9 98
  175 161  13 140 316 718  0  0
  176 600   0 123 321 719 11 99
  177 161  14 124 322 718  0  0
  178 600   0 127 321 719 12 100
  179 161   9 128 322 718  0  0
  180 600   0 143 309 719  6 101
  181 161  10 144 310 718  0  0
  182 600   0 147 309 719  8 102
  183 161  15 148 310 718  0  0
  184 600   0 151 309 719 13 103
  185 161   6 152 310 718  0  0
  186 600   0 155 309 719  3 104
  187 161  12 156 310 718  0  0
  188 600   0 159 309 719 10 105
  189 161   7 160 310 718  0  0
  190 600   0 143 315 719  4 106
  191 161   3 144 316 718  0  0
  192 600   0 147 315 719 14 107
  193 161  16 148 316 718  0  0
  194 600   0 151 315 719 15 108
  195 161  14 152 316 718  0  0
  196 600   0 155 315 719 12 109
  197 161   3 156 316 718  0  0
  198 600   0 159 315 719 14 110
  199 161  15 160 316 718  0  0
  200 600   0 143 321 719 13 111
  201 161  17 144 322 718  0  0
  202 600   0 147 321 719 16 112
  203 161   6 148 322 718  0  0
  204 600   0 163 309 719  3 113
  205 161   4 164 310 718  0  0
  206 600   0 167 309 719  1 114
  207 161  13 168 310 718  0  0
  208 600   0 171 309 719 11 115
  209 161   9 172 310 718  0  0
  210 600   0 175 309 719  6 116
  211 161  16 176 310 718  0  0
  212 600   0 179 309 719 15 117
  213 161   8 180 310 718  0  0
  214 600   0 163 315 719  5 118
  215 161  11 164 316 718  0  0
  216 600   0 167 315 719  9 119
  217 161  17 168 316 718  0  0
  218 600   0 171 315 719 16 120
  219 161  17 172 316 718  0  0
  220 600   0 175 315 719 16 121
  221 161  11 176 316 718  0  0
  222 600   0 179 315 719  9 122
  223 161   8 180 316 718  0  0
  224 600   0 163 321 719  5 123
  225 161  16 164 322 718  0  0
  226 600   0 167 321 719 15 124
  227 161   9 168 322 718  0  0
  228 600   0 183 309 719  6 125
  229 161  13 184 310 718  0  0
  230 600   0 187 309 719 11 126
  231 161   4 188 310 718  0  0
  232 600   0 191 309 719  1 127
  233 161   6 192 310 718  0  0
  234 600   0 195 309 719  3 128
  235 161  17 196 310 718  0  0
  236 600   0 199 309 719 16 129
  237 161  15 200 310 718  0  0
  238 600   0 183 315 719 13 130
  239 161   3 184 316 718  0  0
  240 600   0 187 315 719 14 131
  241 161  14 188 316 718  0  0
  242 600   0 191 315 719 12 132
  243 161  16 192 316 718  0  0
  244 600   0 195 315 719 15 133
  245 161   3 196 316 718  0  0
  246 600   0 199 315 719 14 134
  247 161   7 200 316 718  0  0
  248 600   0 183 321 719  4 135
  249 161  12 184 322 718  0  0
  250 600   0 187 321 719 10 136
  251 161   6 188 322 718  0  0
  252 600   0 203 309 719  3 137
  253 161  15 204 310 718  0  0
  254 600   0 207 309 719 13 138
  255 161  10 208 310 718  0  0
  256 600   0 211 309 719  8 139
  257 161   9 212 310 718  0  0
  258 600   0 215 309 719  6 140
  259 161  14 216 310 718  0  0
  260 600   0 219 309 719 12 141
  261 161  13 220 310 718  0  0
  262 600   0 203 315 719 11 142
  263 161  11 204 316 718  0  0
  264 600   0 207 315 719  9 143
  265 161   5 208 316 718  0  0
  266 600   0 211 315 719  2 144
  267 161  12 212 316 718  0  0
  268 600   0 215 315 719 10 145
  269 161  11 216 316 718  0  0
  270 600   0 219 315 719  9 146
  271 161  10 220 316 718  0  0
  272 600   0 203 321 719  8 147
[RF]
1      194.444 670 671 672 50 1410 0 0 0 0 e
2      563.681 673 674 675 5125 100 0 0 0 0 i
3      194.444 670 671 672 50 1410 0 0 0 0.872665 e
4      194.444 670 671 672 50 1410 0 0 0 2.61799 e
5      194.444 670 671 672 50 1410 0 0 0 5.23599 e
6      194.444 670 671 672 50 1410 0 0 0 2.44346 e
7      194.444 670 671 672 50 1410 0 0 0 0.523599 e
8      194.444 670 671 672 50 1410 0 0 0 5.75959 e
9      194.444 670 671 672 50 1410 0 0 0 5.58505 e
10      194.444 670 671 672 50 1410 0 0 0 1.5708 e
11      194.444 670 671 672 50 1410 0 0 0 4.01426 e
12      194.444 670 671 672 50 1410 0 0 0 1.0472 e
13      194.444 670 671 672 50 1410 0 0 0 3.66519 e
14      194.444 670 671 672 50 1410 0 0 0 4.18879 e
15      194.444 670 671 672 50 1410 0 0 0 4.71239 e
16      194.444 670 671 672 50 1410 0 0 0 2.0944 e
17      194.444 670 671 672 50 1410 0 0 0 3.14159 e

# Format of arbitrary gradients:
#   time_shape_id of 0 means default timing (stepping with grad_raster starting at 1/2 of grad_raster)
# id amplitude first last amp_shape_id time_shape_id delay
# ..      Hz/m  Hz/m Hz/m        ..         ..          us
[GRADIENTS]
1       755490            0       340608 1 0 0
2  1.11079e+06       340608            0 2 3 0
3       743518            0       340608 4 0 0
4  1.11159e+06       340608            0 5 6 0
5       731547            0       340608 7 0 0
6   1.1124e+06       340608            0 8 9 0
7       719575            0       340608 10 0 0
8  1.11323e+06       340608            0 11 12 0
9       707604            0       340608 13 0 0
10  1.08421e+06       340608            0 14 15 0
11       695632            0       340608 16 0 0
12  1.08471e+06       340608            0 17 18 0
13       683660            0       340608 19 0 0
14  1.08523e+06       340608            0 20 21 0
15       671689            0       340608 22 0 0
16  1.08575e+06       340608            0 23 24 0
17       659717            0       340608 25 0 0
18   1.0732e+06       340608            0 26 24 0
19       647746            0       340608 27 0 0
20  1.04397e+06       340608            0 28 29 0
21       635774            0       340608 30 0 0
22    1.044e+06       340608            0 31 32 0
23       623803            0       340608 33 0 0
24  1.04403e+06       340608            0 34 35 0
25       611831            0       340608 36 0 0
26  1.04405e+06       340608            0 37 38 0
27       599860            0       340608 39 0 0
28  1.01447e+06       340608            0 40 41 0
29       587888            0       340608 42 0 0
30  1.01413e+06       340608            0 43 44 0
31       575916            0       340608 45 0 0
32  1.01379e+06       340608            0 46 47 0
33       563945            0       340608 48 0 0
34  1.01343e+06       340608            0 49 50 0
35       551973            0       340608 51 0 0
36       983486       340608            0 52 53 0
37       540002            0       340608 54 0 0
38       982750       340608            0 55 56 0
39       528030            0       340608 57 0 0
40       981994       340608            0 58 59 0
41       516059            0       340608 60 0 0
42       964273       340608            0 61 62 0
43       504087            0       340608 63 0 0
44       963268       340608            0 64 65 0
45       492115            0       340608 66 0 0
46       962236       340608            0 67 68 0
47       480144            0       340608 69 0 0
48       961177       340608            0 70 71 0
49       468172            0       340608 72 0 0
50       930342       340608            0 73 74 0
51       456201            0       340608 75 0 0
52       928858       340608            0 76 77 0
53       444229            0       340608 78 0 0
54       927333       340608            0 79 80 0
55       432258            0       340608 81 0 0
56       925767       340608            0 82 83 0
57       420286            0       340608 84 0 0
58       894577       340608            0 85 86 0
59       408315            0       340608 87 0 0
60       892562       340608            0 88 89 0
61       396343            0       340608 90 0 0
62       903034       340608            0 91 92 0
63       384371            0       340608 93 0 0
64       871293       340608            0 94 95 0
65       372400            0       340608 96 0 0
66       868894       340608            0 97 98 0
67       360428            0       340608 99 0 0
68       866425       340608            0 100 101 0
69       348457            0       340608 102 0 0
70       863886       340608            0 103 104 0
71       340608            0       340608 105 0 0
72       831798       340608            0 106 107 0
73       340608            0       340608 108 0 0
74       840944       340608            0 109 110 0
75       340608            0       340608 111 0 0
76       837948       340608            0 112 113 0
77       340608            0       340608 114 0 0
78       805298       340608            0 115 116 0
79       340608            0       340608 117 0 0
80       801770       340608            0 118 119 0
81       340608            0       340608 120 0 0
82       810414       340608            0 121 122 0
83       340608            0       340608 123 0 0
84       777191       340608            0 124 125 0
85       340608            0       340608 126 0 0
86       773122       340608            0 127 128 0
87       340608            0       340608 129 0 0
88       781132       340608            0 130 131 0
89       340608            0       340608 132 0 0
90       747328       340608            0 133 134 0
91       340608            0       340608 135 0 0
92       742656       340608            0 136 137 0
93       340608            0       340608 138 0 0
94       749929       340608            0 139 140 0
95       340608            0       340608 141 0 0
96       715539       340608            0 142 143 0
97       340608            0       340608 144 0 0
98       710192       340608            0 145 146 0
99       340608            0       340608 147 0 0
100       716611       340608            0 148 149 0
101       340608            0       340608 150 0 0
102       681630       340608            0 151 152 0
103       340608            0       340608 153 0 0
104       687175       340608            0 154 155 0
105       340608            0       340608 156 0 0
106       680956       340608            0 157 158 0
107       340608            0       340608 159 0 0
108       656705       340608            0 160 161 0
109       340608            0       340608 162 0 0
110       649831       340608            0 163 164 0
111       340608            0       340608 165 0 0
112       625147       340608            0 166 167 0
113       340608            0       340608 168 0 0
114       629011       340608            0 169 170 0
115       340608            0       340608 171 0 0
116       621225       340608            0 172 173 0
117       340608            0       340608 174 0 0
118       595144       340608            0 175 176 0
119       340608            0       340608 177 0 0
120       598058       340608            0 178 179 0
121       340608            0       340608 180 0 0
122       559975       340608            0 181 182 0
123       340608            0       340608 183 0 0
124       561541       340608            0 184 185 0
125       340608            0       340608 186 0 0
126       533895       340608            0 187 188 0
127      -340608            0       340608 189 0 0
128       534439       340608            0 190 191 0
129      -340608            0       340608 192 0 0
130       505642       340608            0 193 194 0
131      -340608            0       340608 195 0 0
132       504982       340608            0 196 197 0
133      -340608            0       340608 198 0 0
134       474932       340608            0 199 200 0
135      -340608            0       340608 201 0 0
136       472846       340608            0 202 203 0
137      -340608            0       340608 204 0 0
138       441430       340608            0 205 206 0
139      -340608            0       340608 207 0 0
140       448324       340608            0 208 209 0
141      -340608            0       340608 210 0 0
142       414610       340608            0 211 212 0
143      -340608            0       340608 213 0 0
144       409162       340608            0 214 215 0
145      -340608            0       340608 216 0 0
146       383554       340608            0 217 218 0
147      -340608            0       340608 219 0 0
148       356562       340608            0 220 221 0
149      -340608            0       340608 222 0 0
150       347175       340608            0 223 224 0
151      -340608            0       340608 225 0 0
152       340608       340608            0 226 227 0
153      -340608            0       340608 228 0 0
154       340608       340608            0 229 230 0
155      -340608            0       340608 231 0 0
156       340608       340608            0 232 233 0
157      -340608            0       340608 234 0 0
158       340608       340608            0 235 236 0
159      -340608            0       340608 237 0 0
160       340608       340608            0 238 239 0
161      -340608            0       340608 240 0 0
162       340608       340608            0 241 242 0
163      -340608            0       340608 243 0 0
164       340608       340608            0 244 245 0
165      -340608            0       340608 246 0 0
166       340608       340608            0 247 248 0
167      -340608            0       340608 249 0 0
168       362866       340608            0 250 251 0
169      -340608            0       340608 252 0 0
170       340608       340608            0 253 254 0
171      -340608            0       340608 255 0 0
172       361173       340608            0 256 257 0
173      -340608            0       340608 258 0 0
174       421238       340608            0 259 260 0
175      -340608            0       340608 261 0 0
176       360015       340608            0 262 263 0
177      -340608            0       340608 264 0 0
178       394097       340608            0 265 266 0
179      -340608            0       340608 267 0 0
180       421101       340608            0 268 269 0
181      -340608            0       340608 270 0 0
182       452967       340608            0 271 272 0
183      -340608            0       340608 273 0 0
184       453902       340608            0 274 275 0
185      -349854            0       340608 276 0 0
186       481945       340608            0 277 278 0
187      -361826            0       340608 279 0 0
188       484825       340608            0 280 281 0
189      -373798            0       340608 282 0 0
190       510790       340608            0 283 284 0
191      -385769            0       340608 285 0 0
192       511483       340608            0 286 287 0
193      -397741            0       340608 288 0 0
194       542624       340608            0 289 290 0
195      -409712            0       340608 291 0 0
196       541171       340608            0 292 293 0
197      -421684            0       340608 294 0 0
198       539900       340608            0 295 296 0
199      -433655            0       340608 297 0 0
200       601905       340608            0 298 299 0
201      -445627            0       340608 300 0 0
202       605004       340608            0 301 302 0
203      -457598            0       340608 303 0 0
204       626912       340608            0 304 305 0
205      -469570            0       340608 306 0 0
206       602939       340608            0 307 308 0
207      -481542            0       340608 309 0 0
208       605664       340608            0 310 311 0
209      -493513            0       340608 312 0 0
210       662462       340608            0 313 314 0
211      -505485            0       340608 315 0 0
212       663535       340608            0 316 317 0
213      -517456            0       340608 318 0 0
214       664549       340608            0 319 320 0
215      -529428            0       340608 321 0 0
216       665509       340608            0 322 323 0
217      -541399            0       340608 324 0 0
218       720855       340608            0 325 326 0
219      -553371            0       340608 327 0 0
220       720334       340608            0 328 329 0
221      -565342            0       340608 330 0 0
222       719840       340608            0 331 332 0
223      -577314            0       340608 333 0 0
224       755283       340608            0 334 335 0
225      -589286            0       340608 336 0 0
226       753927       340608            0 337 338 0
227      -601257            0       340608 339 0 0
228       752638       340608            0 340 341 0
229      -613229            0       340608 342 0 0
230       786352       340608            0 343 344 0
231      -625200            0       340608 345 0 0
232       784321       340608            0 346 347 0
233      -637172            0       340608 348 0 0
234       782385       340608            0 349 350 0
235      -649143            0       340608 351 0 0
236       814530       340608            0 352 353 0
237      -661115            0       340608 354 0 0
238       811952       340608            0 355 356 0
239      -673087            0       340608 357 0 0
240       809487       340608            0 358 359 0
241      -685058            0       340608 360 0 0
242       840205       340608            0 361 362 0
243      -697030            0       340608 363 0 0
244       819367       340608            0 364 365 0
245      -709001            0       340608 366 0 0
246       848777       340608            0 367 368 0
247      -720973            0       340608 369 0 0
248       845700       340608            0 370 371 0
249      -732944            0       340608 372 0 0
250       842748       340608            0 373 374 0
251      -744916            0       340608 375 0 0
252       870958       340608            0 376 377 0
253      -756887            0       340608 378 0 0
254       878314       340608            0 379 380 0
255      -768859            0       340608 381 0 0
256       906524       340608            0 382 383 0
257      -780831            0       340608 384 0 0
258       902414       340608            0 385 386 0
259      -792802            0       340608 387 0 0
260       898466       340608            0 388 389 0
261      -804774            0       340608 390 0 0
262       907770       340608            0 391 392 0
263      -816745            0       340608 393 0 0
264       903870       340608            0 394 395 0
265      -828717            0       340608 396 0 0
266       929951       340608            0 397 398 0
267      -840688            0       340608 399 0 0
268       936751       340608            0 400 401 0
269      -852660            0       340608 402 0 0
270       962832       340608            0 403 404 0
271      -864632            0       340608 405 0 0
272       940567       340608            0 406 407 0
273      -876603            0       340608 408 0 0
274       965699       340608            0 409 410 0
275      -888575            0       340608 411 0 0
276       960973       340608            0 412 413 0
277      -900546            0       340608 414 0 0
278       997385       340608            0 415 416 0
279      -912518            0       340608 417 0 0
280       992093       340608            0 418 419 0
281      -924489            0       340608 420 0 0
282       998939       340608            0 421 422 0
283      -936461            0       340608 423 0 0
284       993803       340608            0 424 425 0
285      -948432            0       340608 426 0 0
286  1.02951e+06       340608            0 427 428 0
287      -960404            0       340608 429 0 0
288  1.02385e+06       340608            0 430 431 0
289      -972376            0       340608 432 0 0
290  1.02992e+06       340608            0 433 434 0
291      -984347            0       340608 435 0 0
292  1.02444e+06       340608            0 436 437 0
293      -996319            0       340608 438 0 0
294  1.05946e+06       340608            0 439 440 0
295 -1.00829e+06            0       340608 441 0 0
296  1.05349e+06       340608            0 442 443 0
297 -1.02026e+06            0       340608 444 0 0
298  1.05888e+06       340608            0 445 446 0
299 -1.03223e+06            0       340608 447 0 0
300  1.05311e+06       340608            0 448 449 0
301  -1.0442e+06            0       340608 450 0 0
302  1.08745e+06       340608            0 451 452 0
303 -1.05618e+06            0       340608 453 0 0
304  1.08122e+06       340608            0 454 455 0
305 -1.06815e+06            0       340608 456 0 0
306  1.08599e+06       340608            0 457 458 0
307 -1.08012e+06            0       340608 459 0 0
308  1.09172e+06       340608            0 460 461 0
309       664062            0            0 462 0 0
311       657552            0            0 463 0 0
313       651042            0            0 464 0 0
315       644531            0            0 465 0 0
317       638021            0            0 466 0 0
319       631510            0            0 467 0 0
321       625000            0            0 468 0 0
323       618490            0            0 469 0 0
325       611979            0            0 470 0 0
327       605469            0            0 471 0 0
329       598958            0            0 472 0 0
331       592448            0            0 473 0 0
333       585937            0            0 474 0 0
335       579427            0            0 475 0 0
337       572917            0            0 476 0 0
339       566406            0            0 477 0 0
341       559896            0            0 478 0 0
343       553385            0            0 479 0 0
345       546875            0            0 480 0 0
347       540365            0            0 481 0 0
349       533854            0            0 482 0 0
351       527344            0            0 483 0 0
353       520833            0            0 484 0 0
355       514323            0            0 485 0 0
357       507812            0            0 486 0 0
359       501302            0            0 487 0 0
361       494792            0            0 488 0 0
363       488281            0            0 489 0 0
365       481771            0            0 490 0 0
367       475260            0            0 491 0 0
369       468750            0            0 492 0 0
371       462240            0            0 493 0 0
373       455729            0            0 494 0 0
375       449219            0            0 495 0 0
377       442708            0            0 496 0 0
379       436198            0            0 497 0 0
381       429687            0            0 498 0 0
383       423177            0            0 499 0 0
385       416667            0            0 500 0 0
387       410156            0            0 501 0 0
389       403646            0            0 502 0 0
391       397135            0            0 503 0 0
393       390625            0            0 504 0 0
395       384115            0            0 505 0 0
397       377604            0            0 506 0 0
399       371094            0            0 507 0 0
401       364583            0            0 508 0 0
403       358073            0            0 509 0 0
405       351562            0            0 510 0 0
407       345052            0            0 511 0 0
409       340608            0            0 512 0 0
411       340608            0            0 513 0 0
413       340608            0            0 514 0 0
415       340608            0            0 515 0 0
417       340608            0            0 516 0 0
419       340608            0            0 517 0 0
421       340608            0            0 518 0 0
423       340608            0            0 519 0 0
425       340608            0            0 520 0 0
427       340608            0            0 521 0 0
