# Pulseq sequence file
# Created by MATLAB mr toolbox

[VERSION]
major 1
minor 5
revision 1

[DEFINITIONS]
ACS_Pairs 0 
AdcRasterTime 1e-07 
BlockDurationRaster 1e-05 
FOV 0.192 0.256 0.256 
FlipAngle 7 
GradientRasterTime 1e-05 
Name mprage_3d_wave_sin_cos_192x256x256_R1_2_R2_2_ACS1_0_ACS2_0_sepACS_clean_os4_amp8_cycles10_label_sin_SAG_skyra 
Nx 192 
Ny 256 
Nz 256 
OrientationMapping SAG 
PE1_ACS 0 
PE1_ACSTargetLines 0 
PE1_ImgLines 96 
PE1_R 2 
PE2_ACS 0 
PE2_ACSTargetLines 0 
PE2_ImgLines 128 
PE2_R 2 
PE2_Squeeze_Img 2 
PhaseResolution 1 
RadiofrequencyRasterTime 1e-06 
ReadoutOversamplingFactor 4 
ReceiverGainHigh 1 
SliceThickness 0.001 
TR 2.5 
TotalDuration 160 
kSpaceCenterLine 128 
kSpaceCenterPartition 96 
ro_os 4 

# Format of blocks:
# NUM DUR RF  GX  GY  GZ  ADC  EXT
[BLOCKS]
    1 1044   2   0   0   0  0  0
    2 37798   0   0 897   0  0  0
    3 161   1   0   0   0  0  0
    4 600   0   1 385 899  1  5
    5 161   3   2 386 898  0  0
    6 600   0   1 389 899  2  7
    7 161   4   2 390 898  0  0
    8 600   0   5 385 899  3 10
    9 161   5   6 386 898  0  0
   10 600   0   5 389 899  4 13
   11 161   6   6 390 898  0  0
   12 600   0   9 385 899  5 14
   13 161   7  10 386 898  0  0
   14 600   0   9 389 899  6 15
   15 161   8  10 390 898  0  0
   16 600   0  13 385 899  7 16
   17 161   9  14 386 898  0  0
   18 600   0  13 389 899  8 17
   19 161   1  14 390 898  0  0
   20 600   0  17 385 899  1 18
   21 161  10  18 386 898  0  0
   22 600   0  17 389 899  9 19
   23 161  11  18 390 898  0  0
   24 600   0  21 385 899 10 20
   25 161  12  22 386 898  0  0
   26 600   0  21 389 899 11 21
   27 161   5  22 390 898  0  0
   28 600   0  25 385 899  4 22
   29 161  11  26 386 898  0  0
   30 600   0  25 389 899 10 23
   31 161  13  26 390 898  0  0
   32 600   0  29 385 899 12 24
   33 161  14  30 386 898  0  0
   34 600   0  29 389 899 13 25
   35 161   9  30 390 898  0  0
   36 600   0  33 385 899  8 26
   37 161  10  34 386 898  0  0
   38 600   0  33 389 899  9 27
   39 161  15  34 390 898  0  0
   40 600   0  37 385 899 14 28
   41 161   6  38 386 898  0  0
   42 600   0  37 389 899  5 29
   43 161  12  38 390 898  0  0
   44 600   0  41 385 899 11 30
   45 161   7  42 386 898  0  0
   46 600   0  41 389 899  6 31
   47 161   3  42 390 898  0  0
   48 600   0  45 385 899  2 32
   49 161  16  46 386 898  0  0
   50 600   0  45 389 899 15 33
   51 161  14  46 390 898  0  0
   52 600   0  49 385 899 13 34
   53 161   3  50 386 898  0  0
   54 600   0  49 389 899  2 35
   55 161  15  50 390 898  0  0
   56 600   0  53 385 899 14 36
   57 161  17  54 386 898  0  0
   58 600   0  53 389 899 16 37
   59 161   6  54 390 898  0  0
   60 600   0  57 385 899  5 38
   61 161   4  58 386 898  0  0
   62 600   0  57 389 899  3 39
   63 161  13  58 390 898  0  0
   64 600   0  61 385 899 12 40
   65 161   9  62 386 898  0  0
   66 600   0  61 389 899  8 41
   67 161  16  62 390 898  0  0
   68 600   0  65 385 899 15 42
   69 161   8  66 386 898  0  0
   70 600   0  65 389 899  7 43
   71 161  11  66 390 898  0  0
   72 600   0  69 385 899 10 44
   73 161  17  70 386 898  0  0
   74 600   0  69 389 899 16 45
   75 161  17  70 390 898  0  0
   76 600   0  73 385 899 16 46
   77 161  11  74 386 898  0  0
   78 600   0  73 389 899 10 47
   79 161   8  74 390 898  0  0
   80 600   0  77 385 899  7 48
   81 161  16  78 386 898  0  0
   82 600   0  77 389 899 15 49
   83 161   9  78 390 898  0  0
   84 600   0  81 385 899  8 50
   85 161  13  82 386 898  0  0
   86 600   0  81 389 899 12 51
   87 161   4  82 390 898  0  0
   88 600   0  85 385 899  3 52
   89 161   6  86 386 898  0  0
   90 600   0  85 389 899  5 53
   91 161  17  86 390 898  0  0
   92 600   0  89 385 899 16 54
   93 161  15  90 386 898  0  0
   94 600   0  89 389 899 14 55
   95 161   3  90 390 898  0  0
   96 600   0  93 385 899  2 56
   97 161  14  94 386 898  0  0
   98 600   0  93 389 899 13 57
   99 161  16  94 390 898  0  0
  100 600   0  97 385 899 15 58
  101 161   3  98 386 898  0  0
  102 600   0  97 389 899  2 59
  103 161   7  98 390 898  0  0
  104 600   0 101 385 899  6 60
  105 161  12 102 386 898  0  0
  106 600   0 101 389 899 11 61
  107 161   6 102 390 898  0  0
  108 600   0 105 385 899  5 62
  109 161  15 106 386 898  0  0
  110 600   0 105 389 899 14 63
  111 161  10 106 390 898  0  0
  112 600   0 109 385 899  9 64
  113 161   9 110 386 898  0  0
  114 600   0 109 389 899  8 65
  115 161  14 110 390 898  0  0
  116 600   0 113 385 899 13 66
  117 161  13 114 386 898  0  0
  118 600   0 113 389 899 12 67
  119 161  11 114 390 898  0  0
  120 600   0 117 385 899 10 68
  121 161   5 118 386 898  0  0
  122 600   0 117 389 899  4 69
  123 161  12 118 390 898  0  0
  124 600   0 121 385 899 11 70
  125 161  11 122 386 898  0  0
  126 600   0 121 389 899 10 71
  127 161  10 122 390 898  0  0
  128 600   0 125 385 899  9 72
  129 161   1 126 386 898  0  0
  130 600   0 125 389 899  1 73
  131 161   9 126 390 898  0  0
  132 600   0 129 385 899  8 74
  133 161   8 130 386 898  0  0
  134 600   0 129 389 899  7 75
  135 161   7 130 390 898  0  0
  136 600   0 133 385 899  6 76
  137 161   6 134 386 898  0  0
  138 600   0 133 389 899  5 77
  139 161   5 134 390 898  0  0
  140 600   0 137 385 899  4 78
  141 161   4 138 386 898  0  0
  142 600   0 137 389 899  3 79
  143 161   3 138 390 898  0  0
  144 600   0 141 385 899  2 80
  145 161   1 142 386 898  0  0
  146 600   0 141 389 899  1 81
  147 161   1 142 390 898  0  0
  148 600   0 145 385 899  1 82
  149 161   3 146 386 898  0  0
  150 600   0 145 389 899  2 83
  151 161   4 146 390 898  0  0
  152 600   0 149 385 899  3 84
  153 161   5 150 386 898  0  0
  154 600   0 149 389 899  4 85
  155 161   6 150 390 898  0  0
  156 600   0 153 385 899  5 86
  157 161   7 154 386 898  0  0
  158 600   0 153 389 899  6 87
  159 161   8 154 390 898  0  0
  160 600   0 157 385 899  7 88
  161 161   9 158 386 898  0  0
  162 600   0 157 389 899  8 89
  163 161   1 158 390 898  0  0
  164 600   0 161 385 899  1 90
  165 161  10 162 386 898  0  0
  166 600   0 161 389 899  9 91
  167 161  11 162 390 898  0  0
  168 600   0 165 385 899 10 92
  169 161  12 166 386 898  0  0
  170 600   0 165 389 899 11 93
  171 161   5 166 390 898  0  0
  172 600   0 169 385 899  4 94
  173 161  11 170 386 898  0  0
  174 600   0 169 389 899 10 95
  175 161  13 170 390 898  0  0
  176 600   0 173 385 899 12 96
  177 161  14 174 386 898  0  0
  178 600   0 173 389 899 13 97
  179 161   9 174 390 898  0  0
  180 600   0 177 385 899  8 98
  181 161  10 178 386 898  0  0
  182 600   0 177 389 899  9 99
  183 161  15 178 390 898  0  0
  184 600   0 181 385 899 14 100
  185 161   6 182 386 898  0  0
  186 600   0 181 389 899  5 101
  187 161  12 182 390 898  0  0
  188 600   0 185 385 899 11 102
  189 161   7 186 386 898  0  0
  190 600   0 185 389 899  6 103
  191 161   3 186 390 898  0  0
  192 600   0 189 385 899  2 104
  193 161  16 190 386 898  0  0
  194 600   0 189 389 899 15 105
  195 161  14 190 390 898  0  0
  196 600   0 193 385 899 13 106
  197 161   3 194 386 898  0  0
  198 600   0 193 389 899  2 107
  199 161  15 194 390 898  0  0
  200 600   0 197 385 899 14 108
  201 161  17 198 386 898  0  0
  202 600   0 197 389 899 16 109
  203 161   6 198 390 898  0  0
  204 600   0 201 385 899  5 110
  205 161   4 202 386 898  0  0
  206 600   0 201 389 899  3 111
  207 161  13 202 390 898  0  0
  208 600   0 205 385 899 12 112
  209 161   9 206 386 898  0  0
  210 600   0 205 389 899  8 113
  211 161  16 206 390 898  0  0
  212 600   0 209 385 899 15 114
  213 161   8 210 386 898  0  0
  214 600   0 209 389 899  7 115
  215 161  11 210 390 898  0  0
  216 600   0 213 385 899 10 116
  217 161  17 214 386 898  0  0
  218 600   0 213 389 899 16 117
  219 161  17 214 390 898  0  0
  220 600   0 217 385 899 16 118
  221 161  11 218 386 898  0  0
  222 600   0 217 389 899 10 119
  223 161   8 218 390 898  0  0
  224 600   0 221 385 899  7 120
  225 161  16 222 386 898  0  0
  226 600   0 221 389 899 15 121
  227 161   9 222 390 898  0  0
  228 600   0 225 385 899  8 122
  229 161  13 226 386 898  0  0
  230 600   0 225 389 899 12 123
  231 161   4 226 390 898  0  0
  232 600   0 229 385 899  3 124
  233 161   6 230 386 898  0  0
  234 600   0 229 389 899  5 125
  235 161  17 230 390 898  0  0
  236 600   0 233 385 899 16 126
  237 161  15 234 386 898  0  0
  238 600   0 233 389 899 14 127
  239 161   3 234 390 898  0  0
  240 600   0 237 385 899  2 128
  241 161  14 238 386 898  0  0
  242 600   0 237 389 899 13 129
  243 161  16 238 390 898  0  0
  244 600   0 241 385 899 15 130
  245 161   3 242 386 898  0  0
  246 600   0 241 389 899  2 131
  247 161   7 242 390 898  0  0
  248 600   0 245 385 899  6 132
  249 161  12 246 386 898  0  0
  250 600   0 245 389 899 11 133
  251 161   6 246 390 898  0  0
  252 600   0 249 385 899  5 134
  253 161  15 250 386 898  0  0
  254 600   0 249 389 899 14 135
  255 161  10 250 390 898  0  0
  256 600   0 253 385 899  9 136
  257 161   9 254 386 898  0  0
  258 600   0 253 389 899  8 137
  259 161  14 254 390 898  0  0
  260 600   0 257 385 899 13 138
  261 161  13 258 386 898  0  0
  262 600   0 257 389 899 12 139
  263 161  11 258 390 898  0  0
  264 600   0 261 385 899 10 140
  265 161   5 262 386 898  0  0
  266 600   0 261 389 899  4 141
  267 161  12 262 390 898  0  0
  268 600   0 265 385 899 11 142
  269 161  11 266 386 898  0  0
  270 600   0 265 389 899 10 143
  271 161  10 266 390 898  0  0
  272 600   0 269 385 899  9 144
  273 161   1 270 386 898  0  0
  274 600   0 269 389 899  1 145
  275 161   9 270 390 898  0  0
  276 600   0 273 385 899  8 146
  277 161   8 274 386 898  0  0
  278 600   0 273 389 899  7 147
  279 161   7 274 390 898  0  0
  280 600   0 277 385 899  6 148
  281 161   6 278 386 898  0  0
  282 600   0 277 389 899  5 149
  283 161   5 278 390 898  0  0
  284 600   0 281 385 899  4 150
  285 161   4 282 386 898  0  0
[RF]
1      194.444 834 835 836 50 1410 0 0 0 0 e
2      563.681 837 838 839 5125 100 0 0 0 0 i
3      194.444 834 835 836 50 1410 0 0 0 0.872665 e
4      194.444 834 835 836 50 1410 0 0 0 2.61799 e
5      194.444 834 835 836 50 1410 0 0 0 5.23599 e
6      194.444 834 835 836 50 1410 0 0 0 2.44346 e
7      194.444 834 835 836 50 1410 0 0 0 0.523599 e
8      194.444 834 835 836 50 1410 0 0 0 5.75959 e
9      194.444 834 835 836 50 1410 0 0 0 5.58505 e
10      194.444 834 835 836 50 1410 0 0 0 1.5708 e
11      194.444 834 835 836 50 1410 0 0 0 4.01426 e
12      194.444 834 835 836 50 1410 0 0 0 1.0472 e
13      194.444 834 835 836 50 1410 0 0 0 3.66519 e
14      194.444 834 835 836 50 1410 0 0 0 4.18879 e
15      194.444 834 835 836 50 1410 0 0 0 4.71239 e
16      194.444 834 835 836 50 1410 0 0 0 2.0944 e
17      194.444 834 835 836 50 1410 0 0 0 3.14159 e

# Format of arbitrary gradients:
#   time_shape_id of 0 means default timing (stepping with grad_raster starting at 1/2 of grad_raster)
# id amplitude first last amp_shape_id time_shape_id delay
# ..      Hz/m  Hz/m Hz/m        ..         ..          us
[GRADIENTS]
1       982949            0       340608 1 0 0
2   1.2552e+06       340608            0 2 3 0
3       970978            0       340608 4 0 0
4  1.22773e+06       340608            0 5 6 0
5       959006            0       340608 7 0 0
6  1.22969e+06       340608            0 8 9 0
7       947035            0       340608 10 0 0
8  1.23169e+06       340608            0 11 12 0
9       935063            0       340608 13 0 0
10  1.23373e+06       340608            0 14 15 0
11       923092            0       340608 16 0 0
12   1.2059e+06       340608            0 17 18 0
13       911120            0       340608 19 0 0
14  1.19482e+06       340608            0 20 18 0
15       899149            0       340608 21 0 0
16  1.19647e+06       340608            0 22 23 0
17       887177            0       340608 24 0 0
18  1.19815e+06       340608            0 25 26 0
19       875205            0       340608 27 0 0
20  1.19987e+06       340608            0 28 29 0
21       863234            0       340608 30 0 0
22   1.1718e+06       340608            0 31 32 0
23       851262            0       340608 33 0 0
24  1.17323e+06       340608            0 34 35 0
25       839291            0       340608 36 0 0
26  1.17469e+06       340608            0 37 38 0
27       827319            0       340608 39 0 0
28  1.17619e+06       340608            0 40 41 0
29       815348            0       340608 42 0 0
30  1.16449e+06       340608            0 43 41 0
31       803376            0       340608 44 0 0
32  1.13619e+06       340608            0 45 46 0
33       791404            0       340608 47 0 0
34  1.13725e+06       340608            0 48 49 0
35       779433            0       340608 50 0 0
36  1.13834e+06       340608            0 51 52 0
37       767461            0       340608 53 0 0
38  1.13945e+06       340608            0 54 55 0
39       755490            0       340608 56 0 0
40  1.11079e+06       340608            0 57 58 0
41       743518            0       340608 59 0 0
42  1.11159e+06       340608            0 60 61 0
43       731547            0       340608 62 0 0
44   1.1124e+06       340608            0 63 64 0
45       719575            0       340608 65 0 0
46  1.11323e+06       340608            0 66 67 0
47       707604            0       340608 68 0 0
48  1.08421e+06       340608            0 69 70 0
49       695632            0       340608 71 0 0
50  1.08471e+06       340608            0 72 73 0
51       683660            0       340608 74 0 0
52  1.08523e+06       340608            0 75 76 0
53       671689            0       340608 77 0 0
54  1.08575e+06       340608            0 78 79 0
55       659717            0       340608 80 0 0
56   1.0732e+06       340608            0 81 79 0
57       647746            0       340608 82 0 0
58  1.04397e+06       340608            0 83 84 0
59       635774            0       340608 85 0 0
60    1.044e+06       340608            0 86 87 0
61       623803            0       340608 88 0 0
62  1.04403e+06       340608            0 89 90 0
63       611831            0       340608 91 0 0
64  1.04405e+06       340608            0 92 93 0
65       599860            0       340608 94 0 0
66  1.01447e+06       340608            0 95 96 0
67       587888            0       340608 97 0 0
68  1.01413e+06       340608            0 98 99 0
69       575916            0       340608 100 0 0
70  1.01379e+06       340608            0 101 102 0
71       563945            0       340608 103 0 0
72  1.01343e+06       340608            0 104 105 0
73       551973            0       340608 106 0 0
74       983486       340608            0 107 108 0
75       540002            0       340608 109 0 0
76       982750       340608            0 110 111 0
77       528030            0       340608 112 0 0
78       981994       340608            0 113 114 0
79       516059            0       340608 115 0 0
80       964273       340608            0 116 117 0
81       504087            0       340608 118 0 0
82       963268       340608            0 119 120 0
83       492115            0       340608 121 0 0
84       962236       340608            0 122 123 0
85       480144            0       340608 124 0 0
86       961177       340608            0 125 126 0
87       468172            0       340608 127 0 0
88       930342       340608            0 128 129 0
89       456201            0       340608 130 0 0
90       928858       340608            0 131 132 0
91       444229            0       340608 133 0 0
92       927333       340608            0 134 135 0
93       432258            0       340608 136 0 0
94       925767       340608            0 137 138 0
95       420286            0       340608 139 0 0
96       894577       340608            0 140 141 0
97       408315            0       340608 142 0 0
98       892562       340608            0 143 144 0
99       396343            0       340608 145 0 0
100       903034       340608            0 146 147 0
101       384371            0       340608 148 0 0
102       871293       340608            0 149 150 0
103       372400            0       340608 151 0 0
104       868894       340608            0 152 153 0
105       360428            0       340608 154 0 0
106       866425       340608            0 155 156 0
107       348457            0       340608 157 0 0
108       863886       340608            0 158 159 0
109       340608            0       340608 160 0 0
110       831798       340608            0 161 162 0
111       340608            0       340608 163 0 0
112       840944       340608            0 164 165 0
113       340608            0       340608 166 0 0
114       837948       340608            0 167 168 0
115       340608            0       340608 169 0 0
116       805298       340608            0 170 171 0
117       340608            0       340608 172 0 0
118       801770       340608            0 173 174 0
119       340608            0       340608 175 0 0
120       810414       340608            0 176 177 0
121       340608            0       340608 178 0 0
122       777191       340608            0 179 180 0
123       340608            0       340608 181 0 0
124       773122       340608            0 182 183 0
125       340608            0       340608 184 0 0
126       781132       340608            0 185 186 0
127       340608            0       340608 187 0 0
128       747328       340608            0 188 189 0
129       340608            0       340608 190 0 0
130       742656       340608            0 191 192 0
131       340608            0       340608 193 0 0
132       749929       340608            0 194 195 0
133       340608            0       340608 196 0 0
134       715539       340608            0 197 198 0
135       340608            0       340608 199 0 0
136       710192       340608            0 200 201 0
137       340608            0       340608 202 0 0
138       716611       340608            0 203 204 0
139       340608            0       340608 205 0 0
140       681630       340608            0 206 207 0
141       340608            0       340608 208 0 0
142       687175       340608            0 209 210 0
143       340608            0       340608 211 0 0
144       680956       340608            0 212 213 0
145       340608            0       340608 214 0 0
146       656705       340608            0 215 216 0
147       340608            0       340608 217 0 0
148       649831       340608            0 218 219 0
149       340608            0       340608 220 0 0
150       625147       340608            0 221 222 0
151       340608            0       340608 223 0 0
152       629011       340608            0 224 225 0
153       340608            0       340608 226 0 0
154       621225       340608            0 227 228 0
155       340608            0       340608 229 0 0
156       595144       340608            0 230 231 0
157       340608            0       340608 232 0 0
158       598058       340608            0 233 234 0
159       340608            0       340608 235 0 0
160       559975       340608            0 236 237 0
161       340608            0       340608 238 0 0
162       561541       340608            0 239 240 0
163       340608            0       340608 241 0 0
164       533895       340608            0 242 243 0
165      -340608            0       340608 244 0 0
166       534439       340608            0 245 246 0
167      -340608            0       340608 247 0 0
168       505642       340608            0 248 249 0
169      -340608            0       340608 250 0 0
170       504982       340608            0 251 252 0
171      -340608            0       340608 253 0 0
172       474932       340608            0 254 255 0
173      -340608            0       340608 256 0 0
174       472846       340608            0 257 258 0
175      -340608            0       340608 259 0 0
176       441430       340608            0 260 261 0
177      -340608            0       340608 262 0 0
178       448324       340608            0 263 264 0
179      -340608            0       340608 265 0 0
180       414610       340608            0 266 267 0
181      -340608            0       340608 268 0 0
182       409162       340608            0 269 270 0
183      -340608            0       340608 271 0 0
184       383554       340608            0 272 273 0
185      -340608            0       340608 274 0 0
186       356562       340608            0 275 276 0
187      -340608            0       340608 277 0 0
188       347175       340608            0 278 279 0
189      -340608            0       340608 280 0 0
190       340608       340608            0 281 282 0
191      -340608            0       340608 283 0 0
192       340608       340608            0 284 285 0
193      -340608            0       340608 286 0 0
194       340608       340608            0 287 288 0
195      -340608            0       340608 289 0 0
196       340608       340608            0 290 291 0
197      -340608            0       340608 292 0 0
198       340608       340608            0 293 294 0
199      -340608            0       340608 295 0 0
200       340608       340608            0 296 297 0
201      -340608            0       340608 298 0 0
202       340608       340608            0 299 300 0
203      -340608            0       340608 301 0 0
204       340608       340608            0 302 303 0
205      -340608            0       340608 304 0 0
206       362866       340608            0 305 306 0
207      -340608            0       340608 307 0 0
208       340608       340608            0 308 309 0
209      -340608            0       340608 310 0 0
210       361173       340608            0 311 312 0
211      -340608            0       340608 313 0 0
212       421238       340608            0 314 315 0
213      -340608            0       340608 316 0 0
214       360015       340608            0 317 318 0
215      -340608            0       340608 319 0 0
216       394097       340608            0 320 321 0
217      -340608            0       340608 322 0 0
218       421101       340608            0 323 324 0
219      -340608            0       340608 325 0 0
220       452967       340608            0 326 327 0
221      -340608            0       340608 328 0 0
222       453902       340608            0 329 330 0
223      -349854            0       340608 331 0 0
224       481945       340608            0 332 333 0
225      -361826            0       340608 334 0 0
226       484825       340608            0 335 336 0
227      -373798            0       340608 337 0 0
228       510790       340608            0 338 339 0
229      -385769            0       340608 340 0 0
230       511483       340608            0 341 342 0
231      -397741            0       340608 343 0 0
232       542624       340608            0 344 345 0
233      -409712            0       340608 346 0 0
234       541171       340608            0 347 348 0
235      -421684            0       340608 349 0 0
236       539900       340608            0 350 351 0
237      -433655            0       340608 352 0 0
238       601905       340608            0 353 354 0
239      -445627            0       340608 355 0 0
240       605004       340608            0 356 357 0
241      -457598            0       340608 358 0 0
242       626912       340608            0 359 360 0
243      -469570            0       340608 361 0 0
244       602939       340608            0 362 363 0
245      -481542            0       340608 364 0 0
246       605664       340608            0 365 366 0
247      -493513            0       340608 367 0 0
248       662462       340608            0 368 369 0
249      -505485            0       340608 370 0 0
250       663535       340608            0 371 372 0
251      -517456            0       340608 373 0 0
252       664549       340608            0 374 375 0
253      -529428            0       340608 376 0 0
254       665509       340608            0 377 378 0
255      -541399            0       340608 379 0 0
256       720855       340608            0 380 381 0
257      -553371            0       340608 382 0 0
258       720334       340608            0 383 384 0
259      -565342            0       340608 385 0 0
260       719840       340608            0 386 387 0
261      -577314            0       340608 388 0 0
262       755283       340608            0 389 390 0
263      -589286            0       340608 391 0 0
264       753927       340608            0 392 393 0
265      -601257            0       340608 394 0 0
266       752638       340608            0 395 396 0
267      -613229            0       340608 397 0 0
268       786352       340608            0 398 399 0
269      -625200            0       340608 400 0 0
270       784321       340608            0 401 402 0
271      -637172            0       340608 403 0 0
272       782385       340608            0 404 405 0
273      -649143            0       340608 406 0 0
274       814530       340608            0 407 408 0
275      -661115            0       340608 409 0 0
276       811952       340608            0 410 411 0
277      -673087            0       340608 412 0 0
278       809487       340608            0 413 414 0
279      -685058            0       340608 415 0 0
280       840205       340608            0 416 417 0
281      -697030            0       340608 418 0 0
282       819367       340608            0 419 420 0
283      -709001            0       340608 421 0 0
284       848777       340608            0 422 423 0
285      -720973            0       340608 424 0 0
286       845700       340608            0 425 426 0
287      -732944            0       340608 427 0 0
288       842748       340608            0 428 429 0
289      -744916            0       340608 430 0 0
290       870958       340608            0 431 432 0
291      -756887            0       340608 433 0 0
292       878314       340608            0 434 435 0
293      -768859            0       340608 436 0 0
294       906524       340608            0 437 438 0
295      -780831            0       340608 439 0 0
296       902414       340608            0 440 441 0
297      -792802            0       340608 442 0 0
298       898466       340608            0 443 444 0
299      -804774            0       340608 445 0 0
300       907770       340608            0 446 447 0
301      -816745            0       340608 448 0 0
302       903870       340608            0 449 450 0
303      -828717            0       340608 451 0 0
304       929951       340608            0 452 453 0
305      -840688            0       340608 454 0 0
306       936751       340608            0 455 456 0
307      -852660            0       340608 457 0 0
308       962832       340608            0 458 459 0
309      -864632            0       340608 460 0 0
310       940567       340608            0 461 462 0
311      -876603            0       340608 463 0 0
312       965699       340608            0 464 465 0
313      -888575            0       340608 466 0 0
314       960973       340608            0 467 468 0
315      -900546            0       340608 469 0 0
316       997385       340608            0 470 471 0
317      -912518            0       340608 472 0 0
318       992093       340608            0 473 474 0
319      -924489            0       340608 475 0 0
320       998939       340608            0 476 477 0
321      -936461            0       340608 478 0 0
322       993803       340608            0 479 480 0
323      -948432            0       340608 481 0 0
324  1.02951e+06       340608            0 482 483 0
325      -960404            0       340608 484 0 0
326  1.02385e+06       340608            0 485 486 0
327      -972376            0       340608 487 0 0
328  1.02992e+06       340608            0 488 489 0
329      -984347            0       340608 490 0 0
330  1.02444e+06       340608            0 491 492 0
331      -996319            0       340608 493 0 0
332  1.05946e+06       340608            0 494 495 0
333 -1.00829e+06            0       340608 496 0 0
334  1.05349e+06       340608            0 497 498 0
335 -1.02026e+06            0       340608 499 0 0
336  1.05888e+06       340608            0 500 501 0
337 -1.03223e+06            0       340608 502 0 0
338  1.05311e+06       340608            0 503 504 0
339  -1.0442e+06            0       340608 505 0 0
340  1.08745e+06       340608            0 506 507 0
341 -1.05618e+06            0       340608 508 0 0
342  1.08122e+06       340608            0 509 510 0
343 -1.06815e+06            0       340608 511 0 0
344  1.08599e+06       340608            0 512 513 0
345 -1.08012e+06            0       340608 514 0 0
346  1.09172e+06       340608            0 515 516 0
347 -1.09209e+06            0       340608 517 0 0
348  1.11366e+06       340608            0 518 519 0
349 -1.10406e+06            0       340608 520 0 0
350  1.09018e+06       340608            0 521 522 0
351 -1.11603e+06            0       340608 523 0 0
352  1.11144e+06       340608            0 524 525 0
353 -1.12801e+06            0       340608 526 0 0
354  1.11699e+06       340608            0 527 528 0
355 -1.13998e+06            0       340608 529 0 0
356  1.12101e+06       340608            0 530 531 0
357 -1.15195e+06            0       340608 532 0 0
358  1.11474e+06       340608            0 533 534 0
359 -1.16392e+06            0       340608 535 0 0
360  1.14741e+06       340608            0 536 537 0
361 -1.17589e+06            0       340608 538 0 0
362  1.15092e+06       340608            0 539 540 0
363 -1.18786e+06            0       340608 541 0 0
364   1.1443e+06       340608            0 542 543 0
365 -1.19984e+06            0       340608 544 0 0
366  1.17693e+06       340608            0 545 546 0
367 -1.21181e+06            0       340608 547 0 0
