# Pulseq sequence file
# Created by MATLAB mr toolbox

[VERSION]
major 1
minor 5
revision 1

[DEFINITIONS]
ACS_Pairs 0 
AdcRasterTime 1e-07 
BlockDurationRaster 1e-05 
ETL_Blocks_IMG 22 
ETL_CenterSlot 96 
ETL_DummySlots_IMG 144 
ETL_Efficiency_IMG 1 
ETL_FillerPerKy_IMG 0 
ETL_Mode_IMG segmented 
ETL_RealSlots_IMG 4080 
ETL_SegLen_IMG 48 
ETL_SegmentsPerBlock_IMG 4 
ETL_SegmentsPerKy_IMG 1 
ETL_Target 192 
FOV 0.192 0.256 0.256 
FlipAngle 7 
GradientRasterTime 1e-05 
Name mprage_3d_wave_sin_cos_96x256x256_res2x1x1mm_ETL192_segmented_R1_2_R2_3_ACS1_0_ACS2_0_os4_amp8_cycles10_SAG_skyra 
Nx 96 
Ny 256 
Nz 256 
OrientationMapping SAG 
PE1_ACS 0 
PE1_ACSTargetLines 0 
PE1_ImgLines 48 
PE1_R 2 
PE2_ACS 0 
PE2_ACSTargetLines 0 
PE2_ImgLines 85 
PE2_R 3 
PhaseResolution 1 
RadiofrequencyRasterTime 1e-06 
ReadoutOversamplingFactor 4 
ReceiverGainHigh 1 
RequestedResolutionX_mm 2 
RequestedResolutionY_mm 1 
RequestedResolutionZ_mm 1 
ResolutionX_mm 2 
ResolutionY_mm 1 
ResolutionZ_mm 1 
SliceThickness 0.002 
TR 2.5 
TotalDuration 55 
kSpaceCenterLine 128 
kSpaceCenterPartition 48 
ro_os 4 

# Format of blocks:
# NUM DUR RF  GX  GY  GZ  ADC  EXT
[BLOCKS]
   1 1044   2   0   0   0  0  0
   2 36276   0   0 705   0  0  0
   3 161   1   0   0   0  0  0
   4 600   0   1 197 707  1  5
   5 161   3   2 198 706  0  0
   6 600   0   1 203 707  2  7
   7 161   4   2 204 706  0  0
   8 600   0   1 209 707  3  8
   9 161   5   2 210 706  0  0
  10 600   0   1 215 707  4  9
  11 161   6   2 216 706  0  0
  12 600   0   5 197 707  5 12
  13 161   7   6 198 706  0  0
  14 600   0   5 203 707  6 15
  15 161   8   6 204 706  0  0
  16 600   0   5 209 707  7 17
  17 161   9   6 210 706  0  0
  18 600   0   5 215 707  8 19
  19 161   1   6 216 706  0  0
  20 600   0   9 197 707  1 20
  21 161  10  10 198 706  0  0
  22 600   0   9 203 707  9 21
  23 161  11  10 204 706  0  0
  24 600   0   9 209 707 10 22
  25 161  12  10 210 706  0  0
  26 600   0   9 215 707 11 23
  27 161   5  10 216 706  0  0
  28 600   0  13 197 707  4 24
  29 161  11  14 198 706  0  0
  30 600   0  13 203 707 10 25
  31 161  13  14 204 706  0  0
  32 600   0  13 209 707 12 26
  33 161  14  14 210 706  0  0
  34 600   0  13 215 707 13 27
  35 161   9  14 216 706  0  0
  36 600   0  17 197 707  8 28
  37 161  10  18 198 706  0  0
  38 600   0  17 203 707  9 29
  39 161  15  18 204 706  0  0
  40 600   0  17 209 707 14 30
  41 161   6  18 210 706  0  0
  42 600   0  17 215 707  5 31
  43 161  12  18 216 706  0  0
  44 600   0  21 197 707 11 32
  45 161   7  22 198 706  0  0
  46 600   0  21 203 707  6 33
  47 161   3  22 204 706  0  0
  48 600   0  21 209 707  2 34
  49 161  16  22 210 706  0  0
  50 600   0  21 215 707 15 35
  51 161  14  22 216 706  0  0
  52 600   0  25 197 707 13 36
  53 161   3  26 198 706  0  0
  54 600   0  25 203 707  2 37
  55 161  15  26 204 706  0  0
  56 600   0  25 209 707 14 38
  57 161  17  26 210 706  0  0
  58 600   0  25 215 707 16 39
  59 161   6  26 216 706  0  0
  60 600   0  29 197 707  5 40
  61 161   4  30 198 706  0  0
  62 600   0  29 203 707  3 41
  63 161  13  30 204 706  0  0
  64 600   0  29 209 707 12 42
  65 161   9  30 210 706  0  0
  66 600   0  29 215 707  8 43
  67 161  16  30 216 706  0  0
  68 600   0  33 197 707 15 44
  69 161   8  34 198 706  0  0
  70 600   0  33 203 707  7 45
  71 161  11  34 204 706  0  0
  72 600   0  33 209 707 10 46
  73 161  17  34 210 706  0  0
  74 600   0  33 215 707 16 47
  75 161  17  34 216 706  0  0
  76 600   0  37 197 707 16 48
  77 161  11  38 198 706  0  0
  78 600   0  37 203 707 10 49
  79 161   8  38 204 706  0  0
  80 600   0  37 209 707  7 50
  81 161  16  38 210 706  0  0
  82 600   0  37 215 707 15 51
  83 161   9  38 216 706  0  0
  84 600   0  41 197 707  8 52
  85 161  13  42 198 706  0  0
  86 600   0  41 203 707 12 53
  87 161   4  42 204 706  0  0
  88 600   0  41 209 707  3 54
  89 161   6  42 210 706  0  0
  90 600   0  41 215 707  5 55
  91 161  17  42 216 706  0  0
  92 600   0  45 197 707 16 56
  93 161  15  46 198 706  0  0
  94 600   0  45 203 707 14 57
  95 161   3  46 204 706  0  0
  96 600   0  45 209 707  2 58
  97 161  14  46 210 706  0  0
  98 600   0  45 215 707 13 59
  99 161  16  46 216 706  0  0
 100 600   0  49 197 707 15 60
 101 161   3  50 198 706  0  0
 102 600   0  49 203 707  2 61
 103 161   7  50 204 706  0  0
 104 600   0  49 209 707  6 62
 105 161  12  50 210 706  0  0
 106 600   0  49 215 707 11 63
 107 161   6  50 216 706  0  0
 108 600   0  53 197 707  5 64
 109 161  15  54 198 706  0  0
 110 600   0  53 203 707 14 65
 111 161  10  54 204 706  0  0
 112 600   0  53 209 707  9 66
 113 161   9  54 210 706  0  0
 114 600   0  53 215 707  8 67
 115 161  14  54 216 706  0  0
 116 600   0  57 197 707 13 68
 117 161  13  58 198 706  0  0
 118 600   0  57 203 707 12 69
 119 161  11  58 204 706  0  0
 120 600   0  57 209 707 10 70
 121 161   5  58 210 706  0  0
 122 600   0  57 215 707  4 71
 123 161  12  58 216 706  0  0
 124 600   0  61 197 707 11 72
 125 161  11  62 198 706  0  0
 126 600   0  61 203 707 10 73
 127 161  10  62 204 706  0  0
 128 600   0  61 209 707  9 74
 129 161   1  62 210 706  0  0
 130 600   0  61 215 707  1 75
 131 161   9  62 216 706  0  0
 132 600   0  65 197 707  8 76
 133 161   8  66 198 706  0  0
 134 600   0  65 203 707  7 77
 135 161   7  66 204 706  0  0
 136 600   0  65 209 707  6 78
 137 161   6  66 210 706  0  0
 138 600   0  65 215 707  5 79
 139 161   5  66 216 706  0  0
 140 600   0  69 197 707  4 80
 141 161   4  70 198 706  0  0
 142 600   0  69 203 707  3 81
 143 161   3  70 204 706  0  0
 144 600   0  69 209 707  2 82
 145 161   1  70 210 706  0  0
 146 600   0  69 215 707  1 83
 147 161   1  70 216 706  0  0
 148 600   0  73 197 707  1 84
 149 161   3  74 198 706  0  0
 150 600   0  73 203 707  2 85
 151 161   4  74 204 706  0  0
 152 600   0  73 209 707  3 86
 153 161   5  74 210 706  0  0
 154 600   0  73 215 707  4 87
 155 161   6  74 216 706  0  0
 156 600   0  77 197 707  5 88
 157 161   7  78 198 706  0  0
 158 600   0  77 203 707  6 89
 159 161   8  78 204 706  0  0
 160 600   0  77 209 707  7 90
 161 161   9  78 210 706  0  0
 162 600   0  77 215 707  8 91
 163 161   1  78 216 706  0  0
 164 600   0  81 197 707  1 92
 165 161  10  82 198 706  0  0
 166 600   0  81 203 707  9 93
 167 161  11  82 204 706  0  0
 168 600   0  81 209 707 10 94
 169 161  12  82 210 706  0  0
 170 600   0  81 215 707 11 95
 171 161   5  82 216 706  0  0
 172 600   0  85 197 707  4 96
 173 161  11  86 198 706  0  0
 174 600   0  85 203 707 10 97
 175 161  13  86 204 706  0  0
 176 600   0  85 209 707 12 98
 177 161  14  86 210 706  0  0
 178 600   0  85 215 707 13 99
 179 161   9  86 216 706  0  0
 180 600   0  89 197 707  8 100
 181 161  10  90 198 706  0  0
 182 600   0  89 203 707  9 101
 183 161  15  90 204 706  0  0
 184 600   0  89 209 707 14 102
 185 161   6  90 210 706  0  0
 186 600   0  89 215 707  5 103
 187 161  12  90 216 706  0  0
 188 600   0  93 197 707 11 104
 189 161   7  94 198 706  0  0
 190 600   0  93 203 707  6 105
 191 161   3  94 204 706  0  0
 192 600   0  93 209 707  2 106
 193 161  16  94 210 706  0  0
 194 600   0  93 215 707 15 107
 195 161  14  94 216 706  0  0
 196 600   0  97 197 707 13 108
 197 161   3  98 198 706  0  0
 198 600   0  97 203 707  2 109
 199 161  15  98 204 706  0  0
 200 600   0  97 209 707 14 110
 201 161  17  98 210 706  0  0
 202 600   0  97 215 707 16 111
 203 161   6  98 216 706  0  0
 204 600   0 101 197 707  5 112
 205 161   4 102 198 706  0  0
 206 600   0 101 203 707  3 113
 207 161  13 102 204 706  0  0
 208 600   0 101 209 707 12 114
 209 161   9 102 210 706  0  0
 210 600   0 101 215 707  8 115
 211 161  16 102 216 706  0  0
 212 600   0 105 197 707 15 116
 213 161   8 106 198 706  0  0
 214 600   0 105 203 707  7 117
 215 161  11 106 204 706  0  0
 216 600   0 105 209 707 10 118
 217 161  17 106 210 706  0  0
 218 600   0 105 215 707 16 119
 219 161  17 106 216 706  0  0
 220 600   0 109 197 707 16 120
 221 161  11 110 198 706  0  0
 222 600   0 109 203 707 10 121
 223 161   8 110 204 706  0  0
 224 600   0 109 209 707  7 122
 225 161  16 110 210 706  0  0
 226 600   0 109 215 707 15 123
 227 161   9 110 216 706  0  0
 228 600   0 113 197 707  8 124
 229 161  13 114 198 706  0  0
 230 600   0 113 203 707 12 125
 231 161   4 114 204 706  0  0
 232 600   0 113 209 707  3 126
 233 161   6 114 210 706  0  0
 234 600   0 113 215 707  5 127
 235 161  17 114 216 706  0  0
 236 600   0 117 197 707 16 128
 237 161  15 118 198 706  0  0
 238 600   0 117 203 707 14 129
 239 161   3 118 204 706  0  0
 240 600   0 117 209 707  2 130
 241 161  14 118 210 706  0  0
 242 600   0 117 215 707 13 131
 243 161  16 118 216 706  0  0
 244 600   0 121 197 707 15 132
 245 161   3 122 198 706  0  0
 246 600   0 121 203 707  2 133
 247 161   7 122 204 706  0  0
 248 600   0 121 209 707  6 134
 249 161  12 122 210 706  0  0
 250 600   0 121 215 707 11 135
 251 161   6 122 216 706  0  0
 252 600   0 125 197 707  5 136
 253 161  15 126 198 706  0  0
 254 600   0 125 203 707 14 137
 255 161  10 126 204 706  0  0
 256 600   0 125 209 707  9 138
 257 161   9 126 210 706  0  0
 258 600   0 125 215 707  8 139
 259 161  14 126 216 706  0  0
 260 600   0 129 197 707 13 140
 261 161  13 130 198 706  0  0
 262 600   0 129 203 707 12 141
 263 161  11 130 204 706  0  0
 264 600   0 129 209 707 10 142
 265 161   5 130 210 706  0  0
 266 600   0 129 215 707  4 143
 267 161  12 130 216 706  0  0
 268 600   0 133 197 707 11 144
 269 161  11 134 198 706  0  0
 270 600   0 133 203 707 10 145
 271 161  10 134 204 706  0  0
 272 600   0 133 209 707  9 146
 273 161   1 134 210 706  0  0
 274 600   0 133 215 707  1 147
 275 161   9 134 216 706  0  0
 276 600   0 137 197 707  8 148
 277 161   8 138 198 706  0  0
 278 600   0 137 203 707  7 149
 279 161   7 138 204 706  0  0
 280 600   0 137 209 707  6 150
 281 161   6 138 210 706  0  0
 282 600   0 137 215 707  5 151
 283 161   5 138 216 706  0  0
[RF]
1      194.444 549 550 551 50 1410 0 0 0 0 e
2      563.681 552 553 554 5125 100 0 0 0 0 i
3      194.444 549 550 551 50 1410 0 0 0 0.872665 e
4      194.444 549 550 551 50 1410 0 0 0 2.61799 e
5      194.444 549 550 551 50 1410 0 0 0 5.23599 e
6      194.444 549 550 551 50 1410 0 0 0 2.44346 e
7      194.444 549 550 551 50 1410 0 0 0 0.523599 e
8      194.444 549 550 551 50 1410 0 0 0 5.75959 e
9      194.444 549 550 551 50 1410 0 0 0 5.58505 e
10      194.444 549 550 551 50 1410 0 0 0 1.5708 e
11      194.444 549 550 551 50 1410 0 0 0 4.01426 e
12      194.444 549 550 551 50 1410 0 0 0 1.0472 e
13      194.444 549 550 551 50 1410 0 0 0 3.66519 e
14      194.444 549 550 551 50 1410 0 0 0 4.18879 e
15      194.444 549 550 551 50 1410 0 0 0 4.71239 e
16      194.444 549 550 551 50 1410 0 0 0 2.0944 e
17      194.444 549 550 551 50 1410 0 0 0 3.14159 e

# Format of arbitrary gradients:
#   time_shape_id of 0 means default timing (stepping with grad_raster starting at 1/2 of grad_raster)
# id amplitude first last amp_shape_id time_shape_id delay
# ..      Hz/m  Hz/m Hz/m        ..         ..          us
[GRADIENTS]
1       408315            0       340608 1 0 0
2       892562       340608            0 2 3 0
3       396343            0       340608 4 0 0
4       903034       340608            0 5 6 0
5       384371            0       340608 7 0 0
6       871293       340608            0 8 9 0
7       372400            0       340608 10 0 0
8       868894       340608            0 11 12 0
9       360428            0       340608 13 0 0
10       866425       340608            0 14 15 0
11       348457            0       340608 16 0 0
12       863886       340608            0 17 18 0
13       340608            0       340608 19 0 0
14       831798       340608            0 20 21 0
15       340608            0       340608 22 0 0
16       840944       340608            0 23 24 0
17       340608            0       340608 25 0 0
18       837948       340608            0 26 27 0
19       340608            0       340608 28 0 0
20       805298       340608            0 29 30 0
21       340608            0       340608 31 0 0
22       801770       340608            0 32 33 0
23       340608            0       340608 34 0 0
24       810414       340608            0 35 36 0
25       340608            0       340608 37 0 0
26       777191       340608            0 38 39 0
27       340608            0       340608 40 0 0
28       773122       340608            0 41 42 0
29       340608            0       340608 43 0 0
30       781132       340608            0 44 45 0
31       340608            0       340608 46 0 0
32       747328       340608            0 47 48 0
33       340608            0       340608 49 0 0
34       742656       340608            0 50 51 0
35       340608            0       340608 52 0 0
36       749929       340608            0 53 54 0
37       340608            0       340608 55 0 0
38       715539       340608            0 56 57 0
39       340608            0       340608 58 0 0
40       710192       340608            0 59 60 0
41       340608            0       340608 61 0 0
42       716611       340608            0 62 63 0
43       340608            0       340608 64 0 0
44       681630       340608            0 65 66 0
45       340608            0       340608 67 0 0
46       687175       340608            0 68 69 0
47       340608            0       340608 70 0 0
48       680956       340608            0 71 72 0
49       340608            0       340608 73 0 0
50       656705       340608            0 74 75 0
51       340608            0       340608 76 0 0
52       649831       340608            0 77 78 0
53       340608            0       340608 79 0 0
54       625147       340608            0 80 81 0
55       340608            0       340608 82 0 0
56       629011       340608            0 83 84 0
57       340608            0       340608 85 0 0
58       621225       340608            0 86 87 0
59       340608            0       340608 88 0 0
60       595144       340608            0 89 90 0
61       340608            0       340608 91 0 0
62       598058       340608            0 92 93 0
63       340608            0       340608 94 0 0
64       559975       340608            0 95 96 0
65       340608            0       340608 97 0 0
66       561541       340608            0 98 99 0
67       340608            0       340608 100 0 0
68       533895       340608            0 101 102 0
69      -340608            0       340608 103 0 0
70       534439       340608            0 104 105 0
71      -340608            0       340608 106 0 0
72       505642       340608            0 107 108 0
73      -340608            0       340608 109 0 0
74       504982       340608            0 110 111 0
75      -340608            0       340608 112 0 0
76       474932       340608            0 113 114 0
77      -340608            0       340608 115 0 0
78       472846       340608            0 116 117 0
79      -340608            0       340608 118 0 0
80       441430       340608            0 119 120 0
81      -340608            0       340608 121 0 0
82       448324       340608            0 122 123 0
83      -340608            0       340608 124 0 0
84       414610       340608            0 125 126 0
85      -340608            0       340608 127 0 0
86       409162       340608            0 128 129 0
87      -340608            0       340608 130 0 0
88       383554       340608            0 131 132 0
89      -340608            0       340608 133 0 0
90       356562       340608            0 134 135 0
91      -340608            0       340608 136 0 0
92       347175       340608            0 137 138 0
93      -340608            0       340608 139 0 0
94       340608       340608            0 140 141 0
95      -340608            0       340608 142 0 0
96       340608       340608            0 143 144 0
97      -340608            0       340608 145 0 0
98       340608       340608            0 146 147 0
99      -340608            0       340608 148 0 0
100       340608       340608            0 149 150 0
101      -340608            0       340608 151 0 0
102       340608       340608            0 152 153 0
103      -340608            0       340608 154 0 0
104       340608       340608            0 155 156 0
105      -340608            0       340608 157 0 0
106       340608       340608            0 158 159 0
107      -340608            0       340608 160 0 0
108       340608       340608            0 161 162 0
109      -340608            0       340608 163 0 0
110       362866       340608            0 164 165 0
111      -340608            0       340608 166 0 0
112       340608       340608            0 167 168 0
113      -340608            0       340608 169 0 0
114       361173       340608            0 170 171 0
115      -340608            0       340608 172 0 0
116       421238       340608            0 173 174 0
117      -340608            0       340608 175 0 0
118       360015       340608            0 176 177 0
119      -340608            0       340608 178 0 0
120       394097       340608            0 179 180 0
121      -340608            0       340608 181 0 0
122       421101       340608            0 182 183 0
123      -340608            0       340608 184 0 0
124       452967       340608            0 185 186 0
125      -340608            0       340608 187 0 0
126       453902       340608            0 188 189 0
127      -349854            0       340608 190 0 0
128       481945       340608            0 191 192 0
129      -361826            0       340608 193 0 0
130       484825       340608            0 194 195 0
131      -373798            0       340608 196 0 0
132       510790       340608            0 197 198 0
133      -385769            0       340608 199 0 0
134       511483       340608            0 200 201 0
135      -397741            0       340608 202 0 0
136       542624       340608            0 203 204 0
137      -409712            0       340608 205 0 0
138       541171       340608            0 206 207 0
139      -421684            0       340608 208 0 0
140       539900       340608            0 209 210 0
141      -433655            0       340608 211 0 0
142       601905       340608            0 212 213 0
143      -445627            0       340608 214 0 0
144       605004       340608            0 215 216 0
145      -457598            0       340608 217 0 0
146       626912       340608            0 218 219 0
147      -469570            0       340608 220 0 0
148       602939       340608            0 221 222 0
149      -481542            0       340608 223 0 0
150       605664       340608            0 224 225 0
151      -493513            0       340608 226 0 0
152       662462       340608            0 227 228 0
153      -505485            0       340608 229 0 0
154       663535       340608            0 230 231 0
155      -517456            0       340608 232 0 0
156       664549       340608            0 233 234 0
157      -529428            0       340608 235 0 0
158       665509       340608            0 236 237 0
159      -541399            0       340608 238 0 0
160       720855       340608            0 239 240 0
161      -553371            0       340608 241 0 0
162       720334       340608            0 242 243 0
163      -565342            0       340608 244 0 0
164       719840       340608            0 245 246 0
165      -577314            0       340608 247 0 0
166       755283       340608            0 248 249 0
167      -589286            0       340608 250 0 0
168       753927       340608            0 251 252 0
169      -601257            0       340608 253 0 0
170       752638       340608            0 254 255 0
171      -613229            0       340608 256 0 0
172       786352       340608            0 257 258 0
173      -625200            0       340608 259 0 0
174       784321       340608            0 260 261 0
175      -637172            0       340608 262 0 0
176       782385       340608            0 263 264 0
177      -649143            0       340608 265 0 0
178       814530       340608            0 266 267 0
179      -661115            0       340608 268 0 0
180       811952       340608            0 269 270 0
181      -673087            0       340608 271 0 0
182       809487       340608            0 272 273 0
183      -685058            0       340608 274 0 0
184       840205       340608            0 275 276 0
185      -697030            0       340608 277 0 0
186       819367       340608            0 278 279 0
187      -709001            0       340608 280 0 0
188       848777       340608            0 281 282 0
189      -720973            0       340608 283 0 0
190       845700       340608            0 284 285 0
191      -732944            0       340608 286 0 0
192       842748       340608            0 287 288 0
193  1.04167e+06            0            0 289 0 0
195  1.03353e+06            0            0 290 0 0
197  1.02539e+06            0            0 291 0 0
199  1.01725e+06            0            0 292 0 0
201  1.00911e+06            0            0 293 0 0
203  1.00098e+06            0            0 294 0 0
205       992839            0            0 295 0 0
207       984701            0            0 296 0 0
209       976562            0            0 297 0 0
211       968424            0            0 298 0 0
213       960286            0            0 299 0 0
215       952148            0            0 300 0 0
217       944010            0            0 301 0 0
219       935872            0            0 302 0 0
221       927734            0            0 303 0 0
223       919596            0            0 304 0 0
225       911458            0            0 305 0 0
227       903320            0            0 306 0 0
229       895182            0            0 307 0 0
231       887044            0            0 308 0 0
233       878906            0            0 309 0 0
235       870768            0            0 310 0 0
237       862630            0            0 311 0 0
239       854492            0            0 312 0 0
241       846354            0            0 313 0 0
243       838216            0            0 314 0 0
245       830078            0            0 315 0 0
247       821940            0            0 316 0 0
249       813802            0            0 317 0 0
251       805664            0            0 318 0 0
253       797526            0            0 319 0 0
255       789388            0            0 320 0 0
257       781250            0            0 321 0 0
259       773112            0            0 322 0 0
261       764974            0            0 323 0 0
263       756836            0            0 324 0 0
265       748698            0            0 325 0 0
267       740560            0            0 326 0 0
269       732422            0            0 327 0 0
271       724284            0            0 328 0 0
273       716146            0            0 329 0 0
275       708008            0            0 330 0 0
277       699870            0            0 331 0 0
279       691732            0            0 332 0 0
281       683594            0            0 333 0 0
283       675456            0            0 334 0 0
285       667318            0            0 335 0 0
287       659180            0            0 336 0 0
289       651042            0            0 337 0 0
291       642904            0            0 338 0 0
293       634766            0            0 339 0 0
295       626628            0            0 340 0 0
297       618490            0            0 341 0 0
299       610352            0            0 342 0 0
301       602214            0            0 343 0 0
303       594076            0            0 344 0 0
305       585938            0            0 345 0 0
307       577799            0            0 346 0 0
309       569661            0            0 347 0 0
311       561523            0            0 348 0 0
313       553385            0            0 349 0 0
315       545247            0            0 350 0 0
317       537109            0            0 351 0 0
319       528971            0            0 352 0 0
321       520833            0            0 353 0 0
323       512695            0            0 354 0 0
325       504557            0            0 355 0 0
327       496419            0            0 356 0 0
329       488281            0            0 357 0 0
331       480143            0            0 358 0 0
333       472005            0            0 359 0 0
335       463867            0            0 360 0 0
337       455729            0            0 361 0 0
339       447591            0            0 362 0 0
341       439453            0            0 363 0 0
343       431315            0            0 364 0 0
345       423177            0            0 365 0 0
347       415039            0            0 366 0 0
349       406901            0            0 367 0 0
351       398763            0            0 368 0 0
353       390625            0            0 369 0 0
355       382487            0            0 370 0 0
357       374349            0            0 371 0 0
359       366211            0            0 372 0 0
361       358073            0            0 373 0 0
363       349935            0            0 374 0 0
365       341797            0            0 375 0 0
367       340608            0            0 376 0 0
369       340608            0            0 377 0 0
371       340608            0            0 378 0 0
373       340608            0            0 379 0 0
375       340608            0            0 380 0 0
377       340608            0            0 381 0 0
379       340608            0            0 382 0 0
381       340608            0            0 383 0 0
383       340608            0            0 384 0 0
385       340608            0            0 385 0 0
387       340608            0            0 386 0 0
389       340608            0            0 387 0 0
391       340608            0            0 388 0 0
393       340608            0            0 389 0 0
395       340608            0            0 390 0 0
397       340608            0            0 391 0 0
399       340608            0            0 392 0 0
401       340608            0            0 393 0 0
403       340608            0            0 394 0 0
405       340608            0            0 395 0 0
407       340608            0            0 396 0 0
409       340608            0            0 397 0 0
411       340608            0            0 398 0 0
413       340608            0            0 399 0 0
415       340608            0            0 400 0 0
417       340608            0            0 401 0 0
419       340608            0            0 402 0 0
421       340608            0            0 403 0 0
423       340608            0            0 404 0 0
425       340608            0            0 405 0 0
427       340608            0            0 406 0 0
429       340608            0            0 407 0 0
431       340608            0            0 408 0 0
433       340608            0            0 409 0 0
435       340608            0            0 410 0 0
437       340608            0            0 411 0 0
439       340608            0            0 412 0 0
441       340608            0            0 413 0 0
443       340608            0            0 414 0 0
445       340608            0            0 415 0 0
447       340608            0            0 416 0 0
449       340608            0            0 417 0 0
451      -340608            0            0 418 0 0
453      -340608            0            0 419 0 0
455      -340608            0            0 420 0 0
457      -340608            0            0 421 0 0
459      -340608            0            0 422 0 0
461      -340608            0            0 423 0 0
463      -340608            0            0 424 0 0
465      -340608            0            0 425 0 0
467      -340608            0            0 426 0 0
469      -340608            0            0 427 0 0
471      -340608            0            0 428 0 0
473      -340608            0            0 429 0 0
475      -340608            0            0 430 0 0
477      -340608            0            0 431 0 0
479      -340608            0            0 432 0 0
481      -340608            0            0 433 0 0
483      -340608            0            0 434 0 0
485      -340608            0            0 435 0 0
487      -340608            0            0 436 0 0
489      -340608            0            0 437 0 0
491      -340608            0            0 438 0 0
493      -340608            0            0 439 0 0
495      -340608            0            0 440 0 0
497      -340608            0            0 441 0 0
499      -340608            0            0 442 0 0
501      -340608            0            0 443 0 0
503      -340608            0            0 444 0 0
505      -340608            0            0 445 0 0
507      -340608            0            0 446 0 0
509      -340608            0            0 447 0 0
511      -340608            0            0 448 0 0
513      -340608            0            0 449 0 0
515      -340608            0            0 450 0 0
517      -340608            0            0 451 0 0
519      -340608            0            0 452 0 0
521      -340608            0            0 453 0 0
523      -340608            0            0 454 0 0
525      -340608            0            0 455 0 0
527      -340608            0            0 456 0 0
529      -340608            0            0 457 0 0
531      -340608            0            0 458 0 0
533      -341797            0            0 459 0 0
535      -349935            0            0 460 0 0
537      -358073            0            0 461 0 0
539      -366211            0            0 462 0 0
541      -374349            0            0 463 0 0
543      -382487            0            0 464 0 0
545      -390625            0            0 465 0 0
547      -398763            0            0 466 0 0
