# Pulseq sequence file
# Created by MATLAB mr toolbox

[VERSION]
major 1
minor 4
revision 1

[DEFINITIONS]
AdcRasterTime 1e-07 
BlockDurationRaster 1e-05 
FOV 0.22 0.172 0.256 
FlipAngle 15 
GradientRasterTime 1e-05 
NParts 5 
Nacs 32 
Name gre_witness_merged_calib_250x196x72_Nxos1000_Ncalib72x1_Nacs32_Ndummy300_Nsettle10_os4_amp8_cycles10_TRA_prisma 
Ncalib1 72 
Ncalib2 1 
Ndummy 300 
NsettlePerPart 10 
Nx 250 
Nx_os 1000 
Ny 196 
Nz 72 
OrientationMapping TRA 
Part0_IsACS 0 
Part0_KyPhysStart0 62 
Part0_KyPhysStop0 133 
Part0_KzPhysStart0 36 
Part0_KzPhysStop0 36 
Part0_Mode nowave 
Part0_NLinLocal 72 
Part0_NParLocal 1 
Part0_Name nowave_kywide_kznarrow 
Part0_SetID 0 
Part1_IsACS 0 
Part1_KyPhysStart0 62 
Part1_KyPhysStop0 133 
Part1_KzPhysStart0 36 
Part1_KzPhysStop0 36 
Part1_Mode sin 
Part1_NLinLocal 72 
Part1_NParLocal 1 
Part1_Name sin_kywide_kznarrow 
Part1_SetID 1 
Part2_IsACS 0 
Part2_KyPhysStart0 98 
Part2_KyPhysStop0 98 
Part2_KzPhysStart0 0 
Part2_KzPhysStop0 71 
Part2_Mode nowave 
Part2_NLinLocal 1 
Part2_NParLocal 72 
Part2_Name nowave_kzwide_kynarrow 
Part2_SetID 2 
Part3_IsACS 0 
Part3_KyPhysStart0 98 
Part3_KyPhysStop0 98 
Part3_KzPhysStart0 0 
Part3_KzPhysStop0 71 
Part3_Mode cos 
Part3_NLinLocal 1 
Part3_NParLocal 72 
Part3_Name cos_kzwide_kynarrow 
Part3_SetID 3 
Part4_IsACS 1 
Part4_KyPhysStart0 82 
Part4_KyPhysStop0 113 
Part4_KzPhysStart0 20 
Part4_KzPhysStop0 51 
Part4_Mode nowave 
Part4_NLinLocal 32 
Part4_NParLocal 32 
Part4_Name acs_nowave_center 
Part4_SetID 4 
RadiofrequencyRasterTime 1e-06 
ReadoutOversamplingFactor 4 
ReceiverGainHigh 1 
SliceThickness 0.00355555556 
TE 0.0035325 
TR 0.00746 
TotalDuration 12.39988 
ro_os 4 

# Format of blocks:
# NUM DUR RF  GX  GY  GZ  ADC  EXT
[BLOCKS]
   1 156   1   0   0   0  0  0
   2 590   0 1065 700 161  0  0
   3 156   2 1064 701 162  0  0
   4 590   0 1065 700 165  0  0
   5 156   3 1064 701 166  0  0
   6 590   0 1065 700 169  0  0
   7 156   4 1064 701 170  0  0
   8 590   0 1065 700 173  0  0
   9 156   5 1064 701 174  0  0
  10 590   0 1065 700 177  0  0
  11 156   6 1064 701 178  0  0
  12 590   0 1065 700 181  0  0
  13 156   7 1064 701 182  0  0
  14 590   0 1065 700 185  0  0
  15 156   8 1064 701 186  0  0
  16 590   0 1065 700 189  0  0
  17 156   1 1064 701 190  0  0
  18 590   0 1065 700 193  0  0
  19 156   9 1064 701 194  0  0
  20 590   0 1065 700 197  0  0
  21 156  10 1064 701 198  0  0
  22 590   0 1065 700 201  0  0
  23 156  11 1064 701 202  0  0
  24 590   0 1065 700 205  0  0
  25 156   4 1064 701 206  0  0
  26 590   0 1065 704  81  0  0
  27 156  10 1064 705  82  0  0
  28 590   0 1065 704  85  0  0
  29 156  12 1064 705  86  0  0
  30 590   0 1065 704  89  0  0
  31 156  13 1064 705  90  0  0
  32 590   0 1065 704  93  0  0
  33 156   8 1064 705  94  0  0
  34 590   0 1065 704  97  0  0
  35 156   9 1064 705  98  0  0
  36 590   0 1065 704 101  0  0
  37 156  14 1064 705 102  0  0
  38 590   0 1065 704 105  0  0
  39 156   5 1064 705 106  0  0
  40 590   0 1065 704 109  0  0
  41 156  11 1064 705 110  0  0
  42 590   0 1065 704 113  0  0
  43 156   6 1064 705 114  0  0
  44 590   0 1065 704 117  0  0
  45 156   2 1064 705 118  0  0
  46 590   0 1065 704 121  0  0
  47 156  15 1064 705 122  0  0
  48 590   0 1065 704 125  0  0
  49 156  13 1064 705 126  0  0
  50 590   0 1065 704 129  0  0
  51 156   2 1064 705 130  0  0
  52 590   0 1065 704 133  0  0
  53 156  14 1064 705 134  0  0
  54 590   0 1065 704 137  0  0
  55 156  16 1064 705 138  0  0
  56 590   0 1065 704 141  0  0
  57 156   5 1064 705 142  0  0
  58 590   0 1065 704 145  0  0
  59 156   3 1064 705 146  0  0
  60 590   0 1065 704 149  0  0
  61 156  12 1064 705 150  0  0
  62 590   0 1065 704 153  0  0
  63 156   8 1064 705 154  0  0
  64 590   0 1065 704 157  0  0
  65 156  15 1064 705 158  0  0
  66 590   0 1065 704 161  0  0
  67 156   7 1064 705 162  0  0
  68 590   0 1065 704 165  0  0
  69 156  10 1064 705 166  0  0
  70 590   0 1065 704 169  0  0
  71 156  16 1064 705 170  0  0
  72 590   0 1065 704 173  0  0
  73 156  16 1064 705 174  0  0
  74 590   0 1065 704 177  0  0
  75 156  10 1064 705 178  0  0
  76 590   0 1065 704 181  0  0
  77 156   7 1064 705 182  0  0
  78 590   0 1065 704 185  0  0
  79 156  15 1064 705 186  0  0
  80 590   0 1065 704 189  0  0
  81 156   8 1064 705 190  0  0
  82 590   0 1065 704 193  0  0
  83 156  12 1064 705 194  0  0
  84 590   0 1065 704 197  0  0
  85 156   3 1064 705 198  0  0
  86 590   0 1065 704 201  0  0
  87 156   5 1064 705 202  0  0
  88 590   0 1065 704 205  0  0
  89 156  16 1064 705 206  0  0
  90 590   0 1065 708  81  0  0
  91 156  14 1064 709  82  0  0
  92 590   0 1065 708  85  0  0
  93 156   2 1064 709  86  0  0
  94 590   0 1065 708  89  0  0
  95 156  13 1064 709  90  0  0
  96 590   0 1065 708  93  0  0
  97 156  15 1064 709  94  0  0
  98 590   0 1065 708  97  0  0
  99 156   2 1064 709  98  0  0
 100 590   0 1065 708 101  0  0
 101 156   6 1064 709 102  0  0
 102 590   0 1065 708 105  0  0
 103 156  11 1064 709 106  0  0
 104 590   0 1065 708 109  0  0
 105 156   5 1064 709 110  0  0
 106 590   0 1065 708 113  0  0
 107 156  14 1064 709 114  0  0
 108 590   0 1065 708 117  0  0
 109 156   9 1064 709 118  0  0
 110 590   0 1065 708 121  0  0
 111 156   8 1064 709 122  0  0
 112 590   0 1065 708 125  0  0
 113 156  13 1064 709 126  0  0
 114 590   0 1065 708 129  0  0
 115 156  12 1064 709 130  0  0
 116 590   0 1065 708 133  0  0
 117 156  10 1064 709 134  0  0
 118 590   0 1065 708 137  0  0
 119 156   4 1064 709 138  0  0
 120 590   0 1065 708 141  0  0
 121 156  11 1064 709 142  0  0
 122 590   0 1065 708 145  0  0
 123 156  10 1064 709 146  0  0
 124 590   0 1065 708 149  0  0
 125 156   9 1064 709 150  0  0
 126 590   0 1065 708 153  0  0
 127 156   1 1064 709 154  0  0
 128 590   0 1065 708 157  0  0
 129 156   8 1064 709 158  0  0
 130 590   0 1065 708 161  0  0
 131 156   7 1064 709 162  0  0
 132 590   0 1065 708 165  0  0
 133 156   6 1064 709 166  0  0
 134 590   0 1065 708 169  0  0
 135 156   5 1064 709 170  0  0
 136 590   0 1065 708 173  0  0
 137 156   4 1064 709 174  0  0
 138 590   0 1065 708 177  0  0
 139 156   3 1064 709 178  0  0
 140 590   0 1065 708 181  0  0
 141 156   2 1064 709 182  0  0
 142 590   0 1065 708 185  0  0
 143 156   1 1064 709 186  0  0
 144 590   0 1065 708 189  0  0
 145 156   1 1064 709 190  0  0
 146 590   0 1065 708 193  0  0
 147 156   2 1064 709 194  0  0
 148 590   0 1065 708 197  0  0
 149 156   3 1064 709 198  0  0
 150 590   0 1065 708 201  0  0
 151 156   4 1064 709 202  0  0
 152 590   0 1065 708 205  0  0
 153 156   5 1064 709 206  0  0
 154 590   0 1065 712  81  0  0
 155 156   6 1064 713  82  0  0
 156 590   0 1065 712  85  0  0
 157 156   7 1064 713  86  0  0
 158 590   0 1065 712  89  0  0
 159 156   8 1064 713  90  0  0
 160 590   0 1065 712  93  0  0
 161 156   1 1064 713  94  0  0
 162 590   0 1065 712  97  0  0
 163 156   9 1064 713  98  0  0
 164 590   0 1065 712 101  0  0
 165 156  10 1064 713 102  0  0
 166 590   0 1065 712 105  0  0
 167 156  11 1064 713 106  0  0
 168 590   0 1065 712 109  0  0
 169 156   4 1064 713 110  0  0
 170 590   0 1065 712 113  0  0
 171 156  10 1064 713 114  0  0
 172 590   0 1065 712 117  0  0
 173 156  12 1064 713 118  0  0
 174 590   0 1065 712 121  0  0
 175 156  13 1064 713 122  0  0
 176 590   0 1065 712 125  0  0
 177 156   8 1064 713 126  0  0
 178 590   0 1065 712 129  0  0
 179 156   9 1064 713 130  0  0
 180 590   0 1065 712 133  0  0
 181 156  14 1064 713 134  0  0
 182 590   0 1065 712 137  0  0
 183 156   5 1064 713 138  0  0
 184 590   0 1065 712 141  0  0
 185 156  11 1064 713 142  0  0
 186 590   0 1065 712 145  0  0
 187 156   6 1064 713 146  0  0
 188 590   0 1065 712 149  0  0
 189 156   2 1064 713 150  0  0
 190 590   0 1065 712 153  0  0
 191 156  15 1064 713 154  0  0
 192 590   0 1065 712 157  0  0
 193 156  13 1064 713 158  0  0
 194 590   0 1065 712 161  0  0
 195 156   2 1064 713 162  0  0
 196 590   0 1065 712 165  0  0
 197 156  14 1064 713 166  0  0
 198 590   0 1065 712 169  0  0
 199 156  16 1064 713 170  0  0
 200 590   0 1065 712 173  0  0
 201 156   5 1064 713 174  0  0
 202 590   0 1065 712 177  0  0
 203 156   3 1064 713 178  0  0
 204 590   0 1065 712 181  0  0
 205 156  12 1064 713 182  0  0
 206 590   0 1065 712 185  0  0
 207 156   8 1064 713 186  0  0
 208 590   0 1065 712 189  0  0
 209 156  15 1064 713 190  0  0
 210 590   0 1065 712 193  0  0
 211 156   7 1064 713 194  0  0
 212 590   0 1065 712 197  0  0
 213 156  10 1064 713 198  0  0
 214 590   0 1065 712 201  0  0
 215 156  16 1064 713 202  0  0
 216 590   0 1065 712 205  0  0
 217 156  16 1064 713 206  0  0
 218 590   0 1065 716  81  0  0
 219 156  10 1064 717  82  0  0
 220 590   0 1065 716  85  0  0
 221 156   7 1064 717  86  0  0
 222 590   0 1065 716  89  0  0
 223 156  15 1064 717  90  0  0
 224 590   0 1065 716  93  0  0
 225 156   8 1064 717  94  0  0
 226 590   0 1065 716  97  0  0
 227 156  12 1064 717  98  0  0
 228 590   0 1065 716 101  0  0
 229 156   3 1064 717 102  0  0
 230 590   0 1065 716 105  0  0
 231 156   5 1064 717 106  0  0
 232 590   0 1065 716 109  0  0
 233 156  16 1064 717 110  0  0
 234 590   0 1065 716 113  0  0
 235 156  14 1064 717 114  0  0
 236 590   0 1065 716 117  0  0
 237 156   2 1064 717 118  0  0
 238 590   0 1065 716 121  0  0
 239 156  13 1064 717 122  0  0
 240 590   0 1065 716 125  0  0
 241 156  15 1064 717 126  0  0
 242 590   0 1065 716 129  0  0
 243 156   2 1064 717 130  0  0
 244 590   0 1065 716 133  0  0
 245 156   6 1064 717 134  0  0
 246 590   0 1065 716 137  0  0
 247 156  11 1064 717 138  0  0
 248 590   0 1065 716 141  0  0
 249 156   5 1064 717 142  0  0
 250 590   0 1065 716 145  0  0
 251 156  14 1064 717 146  0  0
 252 590   0 1065 716 149  0  0
 253 156   9 1064 717 150  0  0
 254 590   0 1065 716 153  0  0
 255 156   8 1064 717 154  0  0
 256 590   0 1065 716 157  0  0
 257 156  13 1064 717 158  0  0
[RF]
1      416.667 417 418 419 1360 0 0
2      416.667 417 418 419 1360 0 0.872665
3      416.667 417 418 419 1360 0 2.61799
4      416.667 417 418 419 1360 0 5.23599
5      416.667 417 418 419 1360 0 2.44346
6      416.667 417 418 419 1360 0 0.523599
7      416.667 417 418 419 1360 0 5.75959
8      416.667 417 418 419 1360 0 5.58505
9      416.667 417 418 419 1360 0 1.5708
10      416.667 417 418 419 1360 0 4.01426
11      416.667 417 418 419 1360 0 1.0472
12      416.667 417 418 419 1360 0 3.66519
13      416.667 417 418 419 1360 0 4.18879
14      416.667 417 418 419 1360 0 4.71239
15      416.667 417 418 419 1360 0 2.0944
16      416.667 417 418 419 1360 0 3.14159

# Format of arbitrary gradients:
#   time_shape_id of 0 means default timing (stepping with grad_raster starting at 1/2 of grad_raster)
# id amplitude amp_shape_id time_shape_id delay
# ..      Hz/m       ..         ..          us
[GRADIENTS]
3       340608 1 0 0
4       731211 2 3 0
7       340608 4 0 0
8       730284 5 6 0
11       340608 7 0 0
12       696609 8 9 0
15       340608 10 0 0
16       695041 11 12 0
19       340608 13 0 0
20       693415 14 15 0
23       340608 16 0 0
24       691725 17 18 0
27       340608 19 0 0
28       670151 20 21 0
31       340608 22 0 0
32       667973 23 24 0
35       340608 25 0 0
36       665707 26 27 0
39       340608 28 0 0
40       630657 29 30 0
43       340608 31 0 0
44       627645 32 33 0
47       340608 34 0 0
48       624510 35 36 0
51       340608 37 0 0
52       601615 38 39 0
55       340608 40 0 0
56       597873 41 42 0
59       340608 43 0 0
60       593971 44 45 0
63       340608 46 0 0
64       589900 47 48 0
67       340608 49 0 0
68       565512 50 51 0
71      -340608 52 0 0
72       560718 53 54 0
75      -340608 55 0 0
76       535787 56 57 0
79      -340608 58 0 0
80       530209 59 60 0
83      -340608 61 0 0
84       524371 62 63 0
87      -340608 64 0 0
88       498281 65 66 0
91      -340608 67 0 0
92       491544 68 69 0
95      -340608 70 0 0
96       496589 71 72 0
99      -340608 73 0 0
100       468543 74 75 0
103      -340608 76 0 0
104       460525 77 78 0
107      -340608 79 0 0
108       431759 80 81 0
111      -340608 82 0 0
112       433983 83 84 0
115      -340608 85 0 0
116       424336 86 87 0
119      -340608 88 0 0
120       393174 89 90 0
123      -340608 91 0 0
124       393324 92 93 0
127      -340608 94 0 0
128       360328 95 96 0
131      -340608 97 0 0
132       358434 98 99 0
135      -340608 100 0 0
136       340608 101 102 0
139      -340608 103 0 0
140       340608 104 105 0
143      -340608 106 0 0
144       340608 107 108 0
147      -340608 109 0 0
148       340608 110 111 0
151      -340608 112 0 0
152       340608 113 114 0
155      -340608 115 0 0
156       340608 116 117 0
159      -340608 118 0 0
160       340608 119 120 0
163      -340608 121 0 0
164       340608 122 123 0
167      -340608 124 0 0
168       340608 125 126 0
171      -340608 127 0 0
172       340608 128 129 0
175      -340608 130 0 0
176       340608 131 132 0
179      -340608 133 0 0
180       340608 134 135 0
183      -340608 136 0 0
184       344093 137 138 0
187      -340608 139 0 0
188       350529 140 141 0
191      -340608 142 0 0
192       340608 143 144 0
195      -340608 145 0 0
196       361131 146 147 0
199      -340608 148 0 0
200       365548 149 150 0
203      -340608 151 0 0
204       465719 152 153 0
207      -340608 154 0 0
208       436390 155 156 0
211      -340608 157 0 0
212       436583 158 159 0
215      -340608 160 0 0
216       436760 161 162 0
219      -340608 163 0 0
220       436922 164 165 0
223      -340608 166 0 0
224       504695 167 168 0
227      -345821 169 0 0
228       502026 170 171 0
231      -354598 172 0 0
232       499570 173 174 0
235      -363375 175 0 0
236       567130 176 177 0
239      -372152 178 0 0
240       562070 179 180 0
243      -380929 181 0 0
244       536756 182 183 0
247      -389706 184 0 0
248       600548 185 186 0
251      -398483 187 0 0
252       594626 188 189 0
255      -407260 190 0 0
256       568812 191 192 0
259      -416037 193 0 0
260       629193 194 195 0
263      -424814 196 0 0
264       601935 197 198 0
267      -433591 199 0 0
268       639330 200 201 0
271      -442368 202 0 0
272       632921 203 204 0
275      -451145 205 0 0
276       636148 206 207 0
279      -459922 208 0 0
280       672337 209 210 0
283      -468699 211 0 0
284       665096 212 213 0
287      -477475 214 0 0
288       700154 215 216 0
291  1.11719e+06 217 0 0
294  1.10579e+06 218 0 0
297  1.09439e+06 219 0 0
300  1.08299e+06 220 0 0
303  1.07159e+06 221 0 0
306  1.06019e+06 222 0 0
310  1.04879e+06 223 0 0
314  1.03739e+06 224 0 0
318  1.02599e+06 225 0 0
322  1.01459e+06 226 0 0
326  1.00319e+06 227 0 0
330       991792 228 0 0
334       980392 229 0 0
338       968992 230 0 0
342       957592 231 0 0
346       946192 232 0 0
350       934793 233 0 0
354       923393 234 0 0
358       911993 235 0 0
362       900593 236 0 0
366       889193 237 0 0
370       877793 238 0 0
374       866393 239 0 0
378       854993 240 0 0
382       843593 241 0 0
386       832193 242 0 0
390       820793 243 0 0
394       809394 244 0 0
398       797994 245 0 0
402       786594 246 0 0
406       775194 247 0 0
410       763794 248 0 0
414       752394 249 0 0
418       740994 250 0 0
422       729594 251 0 0
426       718194 252 0 0
430       706794 253 0 0
434       695394 254 0 0
438       683995 255 0 0
442       672595 256 0 0
446       661195 257 0 0
450       649795 258 0 0
454       638395 259 0 0
458       626995 260 0 0
462       615595 261 0 0
466       604195 262 0 0
470       592795 263 0 0
474       581395 264 0 0
478       569995 265 0 0
482       558596 266 0 0
486       547196 267 0 0
490       535796 268 0 0
494       524396 269 0 0
498       512996 270 0 0
502       501596 271 0 0
506       490196 272 0 0
510       478796 273 0 0
514       467396 274 0 0
518       455996 275 0 0
522       444596 276 0 0
526       433197 277 0 0
530       421797 278 0 0
534       410397 279 0 0
538       398997 280 0 0
542       387597 281 0 0
546       376197 282 0 0
550       364797 283 0 0
554       353397 284 0 0
558       341997 285 0 0
562       339936 286 0 0
566       339936 287 0 0
570       339936 288 0 0
574       339936 289 0 0
578       339936 290 0 0
582       339936 291 0 0
586       339936 292 0 0
590       339936 293 0 0
594       339936 294 0 0
598       339936 295 0 0
602       339936 296 0 0
606       339936 297 0 0
610       339936 298 0 0
614       339936 299 0 0
618       339936 300 0 0
622       339936 301 0 0
626       339936 302 0 0
630       339936 303 0 0
634       339936 304 0 0
638       339936 305 0 0
642       339936 306 0 0
646       339936 307 0 0
650       339936 308 0 0
654       339936 309 0 0
658       339936 310 0 0
662       339936 311 0 0
666       339936 312 0 0
670       339936 313 0 0
674       339936 314 0 0
678       339936 315 0 0
682      -339936 316 0 0
686      -339936 317 0 0
690      -339936 318 0 0
694      -339936 319 0 0
698      -339936 320 0 0
702      -339936 321 0 0
706      -339936 322 0 0
710      -339936 323 0 0
714      -339936 324 0 0
718      -339936 325 0 0
722      -339936 326 0 0
726      -339936 327 0 0
730      -339936 328 0 0
734      -339936 329 0 0
738      -339936 330 0 0
742      -339936 331 0 0
746      -339936 332 0 0
750      -339936 333 0 0
754      -339936 334 0 0
758      -339936 335 0 0
762      -339936 336 0 0
766      -339936 337 0 0
770      -339936 338 0 0
774      -339936 339 0 0
778      -339936 340 0 0
782      -339936 341 0 0
786      -339936 342 0 0
790      -339936 343 0 0
794      -339936 344 0 0
798      -341997 345 0 0
802      -353397 346 0 0
806      -364797 347 0 0
810      -376197 348 0 0
814      -387597 349 0 0
818      -398997 350 0 0
822      -410397 351 0 0
826      -421797 352 0 0
830      -433197 353 0 0
834      -444596 354 0 0
838      -455996 355 0 0
842      -467396 356 0 0
846      -478796 357 0 0
850      -490196 358 0 0
854      -501596 359 0 0
858      -512996 360 0 0
862      -524396 361 0 0
866      -535796 362 0 0
870      -547196 363 0 0
874      -558596 364 0 0
878      -569995 365 0 0
882      -581395 366 0 0
886      -592795 367 0 0
890      -604195 368 0 0
894      -615595 369 0 0
898      -626995 370 0 0
902      -638395 371 0 0
906      -649795 372 0 0
910      -661195 373 0 0
914      -672595 374 0 0
918      -683995 375 0 0
922      -695394 376 0 0
926      -706794 377 0 0
930      -718194 378 0 0
934      -729594 379 0 0
938      -740994 380 0 0
942      -752394 381 0 0
946      -763794 382 0 0
950      -775194 383 0 0
954      -786594 384 0 0
958      -797994 385 0 0
962      -809394 386 0 0
966      -820793 387 0 0
970      -832193 388 0 0
974      -843593 389 0 0
978      -854993 390 0 0
982      -866393 391 0 0
986      -877793 392 0 0
990      -889193 393 0 0
994      -900593 394 0 0
998      -911993 395 0 0
1002      -923393 396 0 0
1006      -934793 397 0 0
1010      -946192 398 0 0
1014      -957592 399 0 0
1018      -968992 400 0 0
1022      -980392 401 0 0
1026      -991792 402 0 0
1030 -1.00319e+06 403 0 0
1034 -1.01459e+06 404 0 0
1038 -1.02599e+06 405 0 0
1042 -1.03739e+06 406 0 0
1046 -1.04879e+06 407 0 0
1050 -1.06019e+06 408 0 0
1054 -1.07159e+06 409 0 0
1057 -1.08299e+06 410 0 0
1060 -1.09439e+06 411 0 0
1063 -1.10579e+06 412 0 0
1064  2.38222e+06 413 414 0
1065 -1.14659e+06 415 416 0

# Format of trapezoid gradients:
# id amplitude rise flat fall delay
# ..      Hz/m   us   us   us    us
[TRAP]
 1       180288  60  720  60   0
 2      -669643 210    0 210   0
 5       175280  60  720  60   0
 6      -651042 210    0 210   0
 9       170272  60  720  60   0
10      -632440 210    0 210   0
13       165264  60  720  60   0
14      -613839 210    0 210   0
17       160256  60  720  60   0
18      -595238 210    0 210   0
21       155248  60  720  60   0
22      -576637 210    0 210   0
25       150240  60  720  60   0
26      -558036 210    0 210   0
29       145232  60  720  60   0
30      -539435 210    0 210   0
33       140224  60  720  60   0
34      -520833 210    0 210   0
37       135216  60  720  60   0
38      -502232 210    0 210   0
41       130208  60  720  60   0
42      -483631 210    0 210   0
45       125200  60  720  60   0
46      -465030 210    0 210   0
49       120192  60  720  60   0
50      -446429 210    0 210   0
53       115184  60  720  60   0
54      -427827 210    0 210   0
57       110176  60  720  60   0
58      -409226 210    0 210   0
61       105168  60  720  60   0
62      -390625 210    0 210   0
65       100160  60  720  60   0
66      -372024 210    0 210   0
69      95152.2  60  720  60   0
70      -353423 210    0 210   0
73      90144.2  60  720  60   0
74      -334821 210    0 210   0
77      85136.2  60  720  60   0
78      -316220 210    0 210   0
81      80128.2  60  720  60   0
82      -297619 210    0 210   0
85      75120.2  60  720  60   0
86      -279018 210    0 210   0
89      70112.2  60  720  60   0
90      -260417 210    0 210   0
93      65104.2  60  720  60   0
94      -241815 210    0 210   0
97      60096.2  60  720  60   0
98      -223214 210    0 210   0
101      55088.1  60  720  60   0
102      -204613 210    0 210   0
105      50080.1  60  720  60   0
106      -186012 210    0 210   0
109      45072.1  60  720  60   0
110      -167411 210    0 210   0
113      40064.1  60  720  60   0
114      -148810 210    0 210   0
117      35056.1  60  720  60   0
118      -130208 210    0 210   0
121      30048.1  60  720  60   0
122      -111607 210    0 210   0
125      25040.1  60  720  60   0
126       -93006 210    0 210   0
129      20032.1  60  720  60   0
130     -74404.8 210    0 210   0
133        15024  60  720  60   0
134     -55803.6 210    0 210   0
137        10016  60  720  60   0
138     -37202.4 210    0 210   0
141      5008.01  60  720  60   0
142     -18601.2 210    0 210   0
145           -0  60  720  60   0
146            0 210    0 210   0
149     -5008.01  60  720  60   0
150      18601.2 210    0 210   0
153       -10016  60  720  60   0
154      37202.4 210    0 210   0
157       -15024  60  720  60   0
158      55803.6 210    0 210   0
161     -20032.1  60  720  60   0
162      74404.8 210    0 210   0
165     -25040.1  60  720  60   0
166        93006 210    0 210   0
169     -30048.1  60  720  60   0
170       111607 210    0 210   0
173     -35056.1  60  720  60   0
174       130208 210    0 210   0
177     -40064.1  60  720  60   0
178       148810 210    0 210   0
181     -45072.1  60  720  60   0
182       167411 210    0 210   0
185     -50080.1  60  720  60   0
186       186012 210    0 210   0
189     -55088.1  60  720  60   0
190       204613 210    0 210   0
193     -60096.2  60  720  60   0
194       223214 210    0 210   0
197     -65104.2  60  720  60   0
198       241815 210    0 210   0
201     -70112.2  60  720  60   0
202       260417 210    0 210   0
205     -75120.2  60  720  60   0
206       279018 210    0 210   0
209     -80128.2  60  720  60   0
210       297619 210    0 210   0
213     -85136.2  60  720  60   0
214       316220 210    0 210   0
217     -90144.2  60  720  60   0
218       334821 210    0 210   0
221     -95152.2  60  720  60   0
222       353423 210    0 210   0
225      -100160  60  720  60   0
226       372024 210    0 210   0
229      -105168  60  720  60   0
230       390625 210    0 210   0
233      -110176  60  720  60   0
234       409226 210    0 210   0
237      -115184  60  720  60   0
238       427827 210    0 210   0
241      -120192  60  720  60   0
242       446429 210    0 210   0
245      -125200  60  720  60   0
246       465030 210    0 210   0
249      -130208  60  720  60   0
250       483631 210    0 210   0
253      -135216  60  720  60   0
254       502232 210    0 210   0
257      -140224  60  720  60   0
258       520833 210    0 210   0
261      -145232  60  720  60   0
262       539435 210    0 210   0
265      -150240  60  720  60   0
266       558036 210    0 210   0
269      -155248  60  720  60   0
270       576637 210    0 210   0
273      -160256  60  720  60   0
274       595238 210    0 210   0
277      -165264  60  720  60   0
278       613839 210    0 210   0
281      -170272  60  720  60   0
282       632440 210    0 210   0
285      -175280  60  720  60   0
286       651042 210    0 210   0
289  1.11719e+06 330  180 330   0
290 -1.38968e+06 410    0 410   0
292  1.10579e+06 330  180 330   0
293  -1.3755e+06 410    0 410   0
295  1.09439e+06 330  180 330   0
296 -1.36132e+06 410    0 410   0
298  1.08299e+06 330  180 330   0
299 -1.34714e+06 410    0 410   0
301  1.07159e+06 330  180 330   0
302 -1.33296e+06 410    0 410   0
304  1.06019e+06 330  180 330   0
305 -1.31877e+06 410    0 410   0
307 -1.35174e+06 400    0 400   0
308  1.04879e+06 330  180 330   0
309 -1.30459e+06 410    0 410   0
311 -1.33721e+06 400    0 400   0
312  1.03739e+06 330  180 330   0
313 -1.29041e+06 410    0 410   0
315 -1.32267e+06 400    0 400   0
316  1.02599e+06 330  180 330   0
317 -1.27623e+06 410    0 410   0
319 -1.30814e+06 400    0 400   0
320  1.01459e+06 330  180 330   0
321 -1.26205e+06 410    0 410   0
323 -1.32677e+06 390    0 390   0
324  1.00319e+06 330  180 330   0
325 -1.24787e+06 410    0 410   0
327 -1.31187e+06 390    0 390   0
328       991792 330  180 330   0
329 -1.23369e+06 410    0 410   0
331 -1.29696e+06 390    0 390   0
332       980392 330  180 330   0
333 -1.21951e+06 410    0 410   0
335 -1.28205e+06 390    0 390   0
336       968992 330  180 330   0
337 -1.20533e+06 410    0 410   0
339 -1.26714e+06 390    0 390   0
340       957592 330  180 330   0
341 -1.19115e+06 410    0 410   0
343 -1.28519e+06 380    0 380   0
344       946192 330  180 330   0
345 -1.17697e+06 410    0 410   0
347 -1.26989e+06 380    0 380   0
348       934793 330  180 330   0
349 -1.16279e+06 410    0 410   0
351 -1.25459e+06 380    0 380   0
352       923393 330  180 330   0
353 -1.14861e+06 410    0 410   0
355 -1.23929e+06 380    0 380   0
356       911993 330  180 330   0
357 -1.13443e+06 410    0 410   0
359 -1.25707e+06 370    0 370   0
360       900593 330  180 330   0
361 -1.12025e+06 410    0 410   0
363 -1.24136e+06 370    0 370   0
364       889193 330  180 330   0
365 -1.10607e+06 410    0 410   0
367 -1.22564e+06 370    0 370   0
368       877793 330  180 330   0
369 -1.09189e+06 410    0 410   0
371 -1.20993e+06 370    0 370   0
372       866393 330  180 330   0
373 -1.07771e+06 410    0 410   0
375 -1.19422e+06 370    0 370   0
376       854993 330  180 330   0
377 -1.06353e+06 410    0 410   0
379 -1.21124e+06 360    0 360   0
380       843593 330  180 330   0
381 -1.04935e+06 410    0 410   0
383 -1.19509e+06 360    0 360   0
384       832193 330  180 330   0
385 -1.03517e+06 410    0 410   0
387 -1.17894e+06 360    0 360   0
388       820793 330  180 330   0
389 -1.02099e+06 410    0 410   0
391 -1.16279e+06 360    0 360   0
392       809394 330  180 330   0
393 -1.00681e+06 410    0 410   0
395  -1.1794e+06 350    0 350   0
396       797994 330  180 330   0
397      -992626 410    0 410   0
399 -1.16279e+06 350    0 350   0
400       786594 330  180 330   0
401      -978446 410    0 410   0
403 -1.14618e+06 350    0 350   0
404       775194 330  180 330   0
405      -964265 410    0 410   0
407 -1.12957e+06 350    0 350   0
408       763794 330  180 330   0
409      -950085 410    0 410   0
411 -1.14569e+06 340    0 340   0
412       752394 330  180 330   0
413      -935905 410    0 410   0
415 -1.12859e+06 340    0 340   0
416       740994 330  180 330   0
417      -921724 410    0 410   0
419 -1.11149e+06 340    0 340   0
420       729594 330  180 330   0
421      -907544 410    0 410   0
423 -1.09439e+06 340    0 340   0
424       718194 330  180 330   0
425      -893364 410    0 410   0
427 -1.10994e+06 330    0 330   0
428       706794 330  180 330   0
429      -879183 410    0 410   0
431 -1.09232e+06 330    0 330   0
432       695394 330  180 330   0
433      -865003 410    0 410   0
435  -1.0747e+06 330    0 330   0
436       683995 330  180 330   0
437      -850822 410    0 410   0
439 -1.05708e+06 330    0 330   0
440       672595 330  180 330   0
441      -836642 410    0 410   0
443 -1.07195e+06 320    0 320   0
444       661195 330  180 330   0
445      -822462 410    0 410   0
447 -1.05378e+06 320    0 320   0
448       649795 330  180 330   0
449      -808281 410    0 410   0
451 -1.03561e+06 320    0 320   0
452       638395 330  180 330   0
453      -794101 410    0 410   0
455 -1.05026e+06 310    0 310   0
456       626995 330  180 330   0
457      -779921 410    0 410   0
459 -1.03151e+06 310    0 310   0
460       615595 330  180 330   0
461      -765740 410    0 410   0
463 -1.01275e+06 310    0 310   0
464       604195 330  180 330   0
465      -751560 410    0 410   0
467      -993998 310    0 310   0
468       592795 330  180 330   0
469      -737379 410    0 410   0
471 -1.00775e+06 300    0 300   0
472       581395 330  180 330   0
473      -723199 410    0 410   0
475      -988372 300    0 300   0
476       569995 330  180 330   0
477      -709019 410    0 410   0
479      -968992 300    0 300   0
480       558596 330  180 330   0
481      -694838 410    0 410   0
483      -982358 290    0 290   0
484       547196 330  180 330   0
485      -680658 410    0 410   0
487      -962310 290    0 290   0
488       535796 330  180 330   0
489      -666478 410    0 410   0
491      -942261 290    0 290   0
492       524396 330  180 330   0
493      -652297 410    0 410   0
495      -922213 290    0 290   0
496       512996 330  180 330   0
497      -638117 410    0 410   0
499      -934385 280    0 280   0
500       501596 330  180 330   0
501      -623936 410    0 410   0
503      -913621 280    0 280   0
504       490196 330  180 330   0
505      -609756 410    0 410   0
507      -892857 280    0 280   0
