# Pulseq sequence file
# Created by MATLAB mr toolbox

[VERSION]
major 1
minor 5
revision 1

[DEFINITIONS]
AdcRasterTime 1e-07 
BlockDurationRaster 1e-05 
FOV 0.22 0.172 0.256 
FlipAngle 15 
GradientRasterTime 1e-05 
NParts 5 
Nacs 32 
Name gre_witness_merged_calib_250x196x72_Nxos1000_Ncalib72x1_Nacs32_Ndummy300_Nsettle10_os4_amp8_cycles10_TRA_skyra 
Ncalib1 72 
Ncalib2 1 
Ndummy 300 
NsettlePerPart 10 
Nx 250 
Nx_os 1000 
Ny 196 
Nz 72 
OrientationMapping TRA 
Part0_IsACS 0 
Part0_KyPhysStart0 62 
Part0_KyPhysStop0 133 
Part0_KzPhysStart0 36 
Part0_KzPhysStop0 36 
Part0_Mode nowave 
Part0_NLinLocal 72 
Part0_NParLocal 1 
Part0_Name nowave_kywide_kznarrow 
Part0_SetID 0 
Part1_IsACS 0 
Part1_KyPhysStart0 62 
Part1_KyPhysStop0 133 
Part1_KzPhysStart0 36 
Part1_KzPhysStop0 36 
Part1_Mode sin 
Part1_NLinLocal 72 
Part1_NParLocal 1 
Part1_Name sin_kywide_kznarrow 
Part1_SetID 1 
Part2_IsACS 0 
Part2_KyPhysStart0 98 
Part2_KyPhysStop0 98 
Part2_KzPhysStart0 0 
Part2_KzPhysStop0 71 
Part2_Mode nowave 
Part2_NLinLocal 1 
Part2_NParLocal 72 
Part2_Name nowave_kzwide_kynarrow 
Part2_SetID 2 
Part3_IsACS 0 
Part3_KyPhysStart0 98 
Part3_KyPhysStop0 98 
Part3_KzPhysStart0 0 
Part3_KzPhysStop0 71 
Part3_Mode cos 
Part3_NLinLocal 1 
Part3_NParLocal 72 
Part3_Name cos_kzwide_kynarrow 
Part3_SetID 3 
Part4_IsACS 1 
Part4_KyPhysStart0 82 
Part4_KyPhysStop0 113 
Part4_KzPhysStart0 20 
Part4_KzPhysStop0 51 
Part4_Mode nowave 
Part4_NLinLocal 32 
Part4_NParLocal 32 
Part4_Name acs_nowave_center 
Part4_SetID 4 
RadiofrequencyRasterTime 1e-06 
ReadoutOversamplingFactor 4 
ReceiverGainHigh 1 
SliceThickness 0.00355555556 
TE 0.0035825 
TR 0.00767 
TotalDuration 12.74906 
ro_os 4 

# Format of blocks:
# NUM DUR RF  GX  GY  GZ  ADC  EXT
[BLOCKS]
   1 172   1   0   0   0  0  0
   2 595   0 1073 704 161  0  0
   3 172   2 1072 705 162  0  0
   4 595   0 1073 704 165  0  0
   5 172   3 1072 705 166  0  0
   6 595   0 1073 704 169  0  0
   7 172   4 1072 705 170  0  0
   8 595   0 1073 704 173  0  0
   9 172   5 1072 705 174  0  0
  10 595   0 1073 704 177  0  0
  11 172   6 1072 705 178  0  0
  12 595   0 1073 704 181  0  0
  13 172   7 1072 705 182  0  0
  14 595   0 1073 704 185  0  0
  15 172   8 1072 705 186  0  0
  16 595   0 1073 704 189  0  0
  17 172   1 1072 705 190  0  0
  18 595   0 1073 704 193  0  0
  19 172   9 1072 705 194  0  0
  20 595   0 1073 704 197  0  0
  21 172  10 1072 705 198  0  0
  22 595   0 1073 704 201  0  0
  23 172  11 1072 705 202  0  0
  24 595   0 1073 704 205  0  0
  25 172   4 1072 705 206  0  0
  26 595   0 1073 708  81  0  0
  27 172  10 1072 709  82  0  0
  28 595   0 1073 708  85  0  0
  29 172  12 1072 709  86  0  0
  30 595   0 1073 708  89  0  0
  31 172  13 1072 709  90  0  0
  32 595   0 1073 708  93  0  0
  33 172   8 1072 709  94  0  0
  34 595   0 1073 708  97  0  0
  35 172   9 1072 709  98  0  0
  36 595   0 1073 708 101  0  0
  37 172  14 1072 709 102  0  0
  38 595   0 1073 708 105  0  0
  39 172   5 1072 709 106  0  0
  40 595   0 1073 708 109  0  0
  41 172  11 1072 709 110  0  0
  42 595   0 1073 708 113  0  0
  43 172   6 1072 709 114  0  0
  44 595   0 1073 708 117  0  0
  45 172   2 1072 709 118  0  0
  46 595   0 1073 708 121  0  0
  47 172  15 1072 709 122  0  0
  48 595   0 1073 708 125  0  0
  49 172  13 1072 709 126  0  0
  50 595   0 1073 708 129  0  0
  51 172   2 1072 709 130  0  0
  52 595   0 1073 708 133  0  0
  53 172  14 1072 709 134  0  0
  54 595   0 1073 708 137  0  0
  55 172  16 1072 709 138  0  0
  56 595   0 1073 708 141  0  0
  57 172   5 1072 709 142  0  0
  58 595   0 1073 708 145  0  0
  59 172   3 1072 709 146  0  0
  60 595   0 1073 708 149  0  0
  61 172  12 1072 709 150  0  0
  62 595   0 1073 708 153  0  0
  63 172   8 1072 709 154  0  0
  64 595   0 1073 708 157  0  0
  65 172  15 1072 709 158  0  0
  66 595   0 1073 708 161  0  0
  67 172   7 1072 709 162  0  0
  68 595   0 1073 708 165  0  0
  69 172  10 1072 709 166  0  0
  70 595   0 1073 708 169  0  0
  71 172  16 1072 709 170  0  0
  72 595   0 1073 708 173  0  0
  73 172  16 1072 709 174  0  0
  74 595   0 1073 708 177  0  0
  75 172  10 1072 709 178  0  0
  76 595   0 1073 708 181  0  0
  77 172   7 1072 709 182  0  0
  78 595   0 1073 708 185  0  0
  79 172  15 1072 709 186  0  0
  80 595   0 1073 708 189  0  0
  81 172   8 1072 709 190  0  0
  82 595   0 1073 708 193  0  0
  83 172  12 1072 709 194  0  0
  84 595   0 1073 708 197  0  0
  85 172   3 1072 709 198  0  0
  86 595   0 1073 708 201  0  0
  87 172   5 1072 709 202  0  0
  88 595   0 1073 708 205  0  0
  89 172  16 1072 709 206  0  0
  90 595   0 1073 712  81  0  0
  91 172  14 1072 713  82  0  0
  92 595   0 1073 712  85  0  0
  93 172   2 1072 713  86  0  0
  94 595   0 1073 712  89  0  0
  95 172  13 1072 713  90  0  0
  96 595   0 1073 712  93  0  0
  97 172  15 1072 713  94  0  0
  98 595   0 1073 712  97  0  0
  99 172   2 1072 713  98  0  0
 100 595   0 1073 712 101  0  0
 101 172   6 1072 713 102  0  0
 102 595   0 1073 712 105  0  0
 103 172  11 1072 713 106  0  0
 104 595   0 1073 712 109  0  0
 105 172   5 1072 713 110  0  0
 106 595   0 1073 712 113  0  0
 107 172  14 1072 713 114  0  0
 108 595   0 1073 712 117  0  0
 109 172   9 1072 713 118  0  0
 110 595   0 1073 712 121  0  0
 111 172   8 1072 713 122  0  0
 112 595   0 1073 712 125  0  0
 113 172  13 1072 713 126  0  0
 114 595   0 1073 712 129  0  0
 115 172  12 1072 713 130  0  0
 116 595   0 1073 712 133  0  0
 117 172  10 1072 713 134  0  0
 118 595   0 1073 712 137  0  0
 119 172   4 1072 713 138  0  0
 120 595   0 1073 712 141  0  0
 121 172  11 1072 713 142  0  0
 122 595   0 1073 712 145  0  0
 123 172  10 1072 713 146  0  0
 124 595   0 1073 712 149  0  0
 125 172   9 1072 713 150  0  0
 126 595   0 1073 712 153  0  0
 127 172   1 1072 713 154  0  0
 128 595   0 1073 712 157  0  0
 129 172   8 1072 713 158  0  0
 130 595   0 1073 712 161  0  0
 131 172   7 1072 713 162  0  0
 132 595   0 1073 712 165  0  0
 133 172   6 1072 713 166  0  0
 134 595   0 1073 712 169  0  0
 135 172   5 1072 713 170  0  0
 136 595   0 1073 712 173  0  0
 137 172   4 1072 713 174  0  0
 138 595   0 1073 712 177  0  0
 139 172   3 1072 713 178  0  0
 140 595   0 1073 712 181  0  0
 141 172   2 1072 713 182  0  0
 142 595   0 1073 712 185  0  0
 143 172   1 1072 713 186  0  0
 144 595   0 1073 712 189  0  0
 145 172   1 1072 713 190  0  0
 146 595   0 1073 712 193  0  0
 147 172   2 1072 713 194  0  0
 148 595   0 1073 712 197  0  0
 149 172   3 1072 713 198  0  0
 150 595   0 1073 712 201  0  0
 151 172   4 1072 713 202  0  0
 152 595   0 1073 712 205  0  0
 153 172   5 1072 713 206  0  0
 154 595   0 1073 716  81  0  0
 155 172   6 1072 717  82  0  0
 156 595   0 1073 716  85  0  0
 157 172   7 1072 717  86  0  0
 158 595   0 1073 716  89  0  0
 159 172   8 1072 717  90  0  0
 160 595   0 1073 716  93  0  0
 161 172   1 1072 717  94  0  0
 162 595   0 1073 716  97  0  0
 163 172   9 1072 717  98  0  0
 164 595   0 1073 716 101  0  0
 165 172  10 1072 717 102  0  0
 166 595   0 1073 716 105  0  0
 167 172  11 1072 717 106  0  0
 168 595   0 1073 716 109  0  0
 169 172   4 1072 717 110  0  0
 170 595   0 1073 716 113  0  0
 171 172  10 1072 717 114  0  0
 172 595   0 1073 716 117  0  0
 173 172  12 1072 717 118  0  0
 174 595   0 1073 716 121  0  0
 175 172  13 1072 717 122  0  0
 176 595   0 1073 716 125  0  0
 177 172   8 1072 717 126  0  0
 178 595   0 1073 716 129  0  0
 179 172   9 1072 717 130  0  0
 180 595   0 1073 716 133  0  0
 181 172  14 1072 717 134  0  0
 182 595   0 1073 716 137  0  0
 183 172   5 1072 717 138  0  0
 184 595   0 1073 716 141  0  0
 185 172  11 1072 717 142  0  0
 186 595   0 1073 716 145  0  0
 187 172   6 1072 717 146  0  0
 188 595   0 1073 716 149  0  0
 189 172   2 1072 717 150  0  0
 190 595   0 1073 716 153  0  0
 191 172  15 1072 717 154  0  0
 192 595   0 1073 716 157  0  0
 193 172  13 1072 717 158  0  0
 194 595   0 1073 716 161  0  0
 195 172   2 1072 717 162  0  0
 196 595   0 1073 716 165  0  0
 197 172  14 1072 717 166  0  0
 198 595   0 1073 716 169  0  0
 199 172  16 1072 717 170  0  0
 200 595   0 1073 716 173  0  0
 201 172   5 1072 717 174  0  0
 202 595   0 1073 716 177  0  0
 203 172   3 1072 717 178  0  0
 204 595   0 1073 716 181  0  0
 205 172  12 1072 717 182  0  0
 206 595   0 1073 716 185  0  0
 207 172   8 1072 717 186  0  0
 208 595   0 1073 716 189  0  0
 209 172  15 1072 717 190  0  0
 210 595   0 1073 716 193  0  0
 211 172   7 1072 717 194  0  0
 212 595   0 1073 716 197  0  0
 213 172  10 1072 717 198  0  0
 214 595   0 1073 716 201  0  0
 215 172  16 1072 717 202  0  0
 216 595   0 1073 716 205  0  0
 217 172  16 1072 717 206  0  0
 218 595   0 1073 720  81  0  0
 219 172  10 1072 721  82  0  0
 220 595   0 1073 720  85  0  0
 221 172   7 1072 721  86  0  0
 222 595   0 1073 720  89  0  0
 223 172  15 1072 721  90  0  0
 224 595   0 1073 720  93  0  0
 225 172   8 1072 721  94  0  0
 226 595   0 1073 720  97  0  0
 227 172  12 1072 721  98  0  0
 228 595   0 1073 720 101  0  0
 229 172   3 1072 721 102  0  0
 230 595   0 1073 720 105  0  0
 231 172   5 1072 721 106  0  0
 232 595   0 1073 720 109  0  0
 233 172  16 1072 721 110  0  0
 234 595   0 1073 720 113  0  0
 235 172  14 1072 721 114  0  0
 236 595   0 1073 720 117  0  0
 237 172   2 1072 721 118  0  0
 238 595   0 1073 720 121  0  0
 239 172  13 1072 721 122  0  0
 240 595   0 1073 720 125  0  0
 241 172  15 1072 721 126  0  0
 242 595   0 1073 720 129  0  0
 243 172   2 1072 721 130  0  0
 244 595   0 1073 720 133  0  0
 245 172   6 1072 721 134  0  0
 246 595   0 1073 720 137  0  0
 247 172  11 1072 721 138  0  0
 248 595   0 1073 720 141  0  0
 249 172   5 1072 721 142  0  0
 250 595   0 1073 720 145  0  0
 251 172  14 1072 721 146  0  0
 252 595   0 1073 720 149  0  0
 253 172   9 1072 721 150  0  0
 254 595   0 1073 720 153  0  0
 255 172   8 1072 721 154  0  0
 256 595   0 1073 720 157  0  0
 257 172  13 1072 721 158  0  0
[RF]
1      416.667 417 418 419 50 1520 0 0 0 0 e
2      416.667 417 418 419 50 1520 0 0 0 0.872665 e
3      416.667 417 418 419 50 1520 0 0 0 2.61799 e
4      416.667 417 418 419 50 1520 0 0 0 5.23599 e
5      416.667 417 418 419 50 1520 0 0 0 2.44346 e
6      416.667 417 418 419 50 1520 0 0 0 0.523599 e
7      416.667 417 418 419 50 1520 0 0 0 5.75959 e
8      416.667 417 418 419 50 1520 0 0 0 5.58505 e
9      416.667 417 418 419 50 1520 0 0 0 1.5708 e
10      416.667 417 418 419 50 1520 0 0 0 4.01426 e
11      416.667 417 418 419 50 1520 0 0 0 1.0472 e
12      416.667 417 418 419 50 1520 0 0 0 3.66519 e
13      416.667 417 418 419 50 1520 0 0 0 4.18879 e
14      416.667 417 418 419 50 1520 0 0 0 4.71239 e
15      416.667 417 418 419 50 1520 0 0 0 2.0944 e
16      416.667 417 418 419 50 1520 0 0 0 3.14159 e

# Format of arbitrary gradients:
#   time_shape_id of 0 means default timing (stepping with grad_raster starting at 1/2 of grad_raster)
# id amplitude first last amp_shape_id time_shape_id delay
# ..      Hz/m  Hz/m Hz/m        ..         ..          us
[GRADIENTS]
3       340608            0       340608 1 0 0
4       681630       340608            0 2 3 0
7       340608            0       340608 4 0 0
8       679942       340608            0 5 6 0
11       340608            0       340608 7 0 0
12       690093       340608            0 8 9 0
15       340608            0       340608 10 0 0
16       658852       340608            0 11 12 0
19       340608            0       340608 13 0 0
20       656705       340608            0 14 15 0
23       340608            0       340608 16 0 0
24       654481       340608            0 17 18 0
27       340608            0       340608 19 0 0
28       652176       340608            0 20 21 0
31       340608            0       340608 22 0 0
32       620497       340608            0 23 24 0
35       340608            0       340608 25 0 0
36       629011       340608            0 26 27 0
39       340608            0       340608 28 0 0
40       626138       340608            0 29 30 0
43       340608            0       340608 31 0 0
44       593768       340608            0 32 33 0
47       340608            0       340608 34 0 0
48       590231       340608            0 35 36 0
51       340608            0       340608 37 0 0
52       598058       340608            0 38 39 0
55       340608            0       340608 40 0 0
56       564983       340608            0 41 42 0
59       340608            0       340608 43 0 0
60       560743       340608            0 44 45 0
63       340608            0       340608 46 0 0
64       567686       340608            0 47 48 0
67      -340608            0       340608 49 0 0
68       533895       340608            0 50 51 0
71      -340608            0       340608 52 0 0
72       528847       340608            0 53 54 0
75      -340608            0       340608 55 0 0
76       534729       340608            0 56 57 0
79      -340608            0       340608 58 0 0
80       500217       340608            0 59 60 0
83      -340608            0       340608 61 0 0
84       504982       340608            0 62 63 0
87      -340608            0       340608 64 0 0
88       498842       340608            0 65 66 0
91      -340608            0       340608 67 0 0
92       473912       340608            0 68 69 0
95      -340608            0       340608 70 0 0
96       477786       340608            0 71 72 0
99      -340608            0       340608 73 0 0
100       441430       340608            0 74 75 0
103      -340608            0       340608 76 0 0
104       443850       340608            0 77 78 0
107      -340608            0       340608 79 0 0
108       417139       340608            0 80 81 0
111      -340608            0       340608 82 0 0
112       408258       340608            0 83 84 0
115      -340608            0       340608 85 0 0
116       409162       340608            0 86 87 0
119      -340608            0       340608 88 0 0
120       380397       340608            0 89 90 0
123      -340608            0       340608 91 0 0
124       379844       340608            0 92 93 0
127      -340608            0       340608 94 0 0
128       349523       340608            0 95 96 0
131      -340608            0       340608 97 0 0
132       347175       340608            0 98 99 0
135      -340608            0       340608 100 0 0
136       340608       340608            0 101 102 0
139      -340608            0       340608 103 0 0
140       340608       340608            0 104 105 0
143      -340608            0       340608 106 0 0
144       340608       340608            0 107 108 0
147      -340608            0       340608 109 0 0
148       340608       340608            0 110 111 0
151      -340608            0       340608 112 0 0
152       340608       340608            0 113 114 0
155      -340608            0       340608 115 0 0
156       340608       340608            0 116 117 0
159      -340608            0       340608 118 0 0
160       340608       340608            0 119 120 0
163      -340608            0       340608 121 0 0
164       340608       340608            0 122 123 0
167      -340608            0       340608 124 0 0
168       340608       340608            0 125 126 0
171      -340608            0       340608 127 0 0
172       340608       340608            0 128 129 0
175      -340608            0       340608 130 0 0
176       340608       340608            0 131 132 0
179      -340608            0       340608 133 0 0
180       362866       340608            0 134 135 0
183      -340608            0       340608 136 0 0
184       343860       340608            0 137 138 0
187      -340608            0       340608 139 0 0
188       349909       340608            0 140 141 0
191      -340608            0       340608 142 0 0
192       340608       340608            0 143 144 0
195      -340608            0       340608 145 0 0
196       421238       340608            0 146 147 0
199      -340608            0       340608 148 0 0
200       422316       340608            0 149 150 0
203      -340608            0       340608 151 0 0
204       423281       340608            0 152 153 0
207      -340608            0       340608 154 0 0
208       424149       340608            0 155 156 0
211      -340608            0       340608 157 0 0
212       421101       340608            0 158 159 0
215      -340608            0       340608 160 0 0
216       421951       340608            0 161 162 0
219      -340608            0       340608 163 0 0
220       485536       340608            0 164 165 0
223      -340608            0       340608 166 0 0
224       483666       340608            0 167 168 0
227      -340608            0       340608 169 0 0
228       481945       340608            0 170 171 0
231      -343027            0       340608 172 0 0
232       480356       340608            0 173 174 0
235      -351338            0       340608 175 0 0
236       544445       340608            0 176 177 0
239      -359649            0       340608 178 0 0
240       540452       340608            0 179 180 0
243      -367960            0       340608 181 0 0
244       511483       340608            0 182 183 0
247      -376272            0       340608 184 0 0
248       514932       340608            0 185 186 0
251      -384583            0       340608 187 0 0
252       573389       340608            0 188 189 0
255      -392894            0       340608 190 0 0
256       543102       340608            0 191 192 0
259      -401205            0       340608 193 0 0
260       539900       340608            0 194 195 0
263      -409516            0       340608 196 0 0
264       601935       340608            0 197 198 0
267      -417827            0       340608 199 0 0
268       570888       340608            0 200 201 0
271      -426139            0       340608 202 0 0
272       632921       340608            0 203 204 0
275      -434450            0       340608 205 0 0
276       626912       340608            0 206 207 0
279      -442761            0       340608 208 0 0
280       602995       340608            0 209 210 0
283      -451072            0       340608 211 0 0
284       635991       340608            0 212 213 0
287      -459383            0       340608 214 0 0
288       630409       340608            0 215 216 0
291  1.09571e+06            0            0 217 0 0
294  1.08453e+06            0            0 218 0 0
298  1.07335e+06            0            0 219 0 0
302  1.06216e+06            0            0 220 0 0
306  1.05098e+06            0            0 221 0 0
310   1.0398e+06            0            0 222 0 0
314  1.02862e+06            0            0 223 0 0
318  1.01744e+06            0            0 224 0 0
322  1.00626e+06            0            0 225 0 0
326       995081            0            0 226 0 0
330       983900            0            0 227 0 0
334       972719            0            0 228 0 0
338       961538            0            0 229 0 0
342       950358            0            0 230 0 0
346       939177            0            0 231 0 0
350       927996            0            0 232 0 0
354       916816            0            0 233 0 0
358       905635            0            0 234 0 0
362       894454            0            0 235 0 0
366       883274            0            0 236 0 0
370       872093            0            0 237 0 0
374       860912            0            0 238 0 0
378       849732            0            0 239 0 0
382       838551            0            0 240 0 0
386       827370            0            0 241 0 0
390       816190            0            0 242 0 0
394       805009            0            0 243 0 0
398       793828            0            0 244 0 0
402       782648            0            0 245 0 0
406       771467            0            0 246 0 0
410       760286            0            0 247 0 0
414       749106            0            0 248 0 0
418       737925            0            0 249 0 0
422       726744            0            0 250 0 0
426       715564            0            0 251 0 0
430       704383            0            0 252 0 0
434       693202            0            0 253 0 0
438       682021            0            0 254 0 0
442       670841            0            0 255 0 0
446       659660            0            0 256 0 0
450       648479            0            0 257 0 0
454       637299            0            0 258 0 0
458       626118            0            0 259 0 0
462       614937            0            0 260 0 0
466       603757            0            0 261 0 0
470       592576            0            0 262 0 0
474       581395            0            0 263 0 0
478       570215            0            0 264 0 0
482       559034            0            0 265 0 0
486       547853            0            0 266 0 0
490       536673            0            0 267 0 0
494       525492            0            0 268 0 0
498       514311            0            0 269 0 0
502       503131            0            0 270 0 0
506       491950            0            0 271 0 0
510       480769            0            0 272 0 0
514       469589            0            0 273 0 0
518       458408            0            0 274 0 0
522       447227            0            0 275 0 0
526       436047            0            0 276 0 0
530       424866            0            0 277 0 0
534       413685            0            0 278 0 0
538       402504            0            0 279 0 0
542       391324            0            0 280 0 0
546       380143            0            0 281 0 0
550       368962            0            0 282 0 0
554       357782            0            0 283 0 0
558       346601            0            0 284 0 0
562       339936            0            0 285 0 0
566       339936            0            0 286 0 0
570       339936            0            0 287 0 0
574       339936            0            0 288 0 0
578       339936            0            0 289 0 0
582       339936            0            0 290 0 0
586       339936            0            0 291 0 0
590       339936            0            0 292 0 0
594       339936            0            0 293 0 0
598       339936            0            0 294 0 0
602       339936            0            0 295 0 0
606       339936            0            0 296 0 0
610       339936            0            0 297 0 0
614       339936            0            0 298 0 0
618       339936            0            0 299 0 0
622       339936            0            0 300 0 0
626       339936            0            0 301 0 0
630       339936            0            0 302 0 0
634       339936            0            0 303 0 0
638       339936            0            0 304 0 0
642       339936            0            0 305 0 0
646       339936            0            0 306 0 0
650       339936            0            0 307 0 0
654       339936            0            0 308 0 0
658       339936            0            0 309 0 0
662       339936            0            0 310 0 0
666       339936            0            0 311 0 0
670       339936            0            0 312 0 0
674       339936            0            0 313 0 0
678       339936            0            0 314 0 0
682       339936            0            0 315 0 0
686      -339936            0            0 316 0 0
690      -339936            0            0 317 0 0
694      -339936            0            0 318 0 0
698      -339936            0            0 319 0 0
702      -339936            0            0 320 0 0
706      -339936            0            0 321 0 0
710      -339936            0            0 322 0 0
714      -339936            0            0 323 0 0
718      -339936            0            0 324 0 0
722      -339936            0            0 325 0 0
726      -339936            0            0 326 0 0
730      -339936            0            0 327 0 0
734      -339936            0            0 328 0 0
738      -339936            0            0 329 0 0
742      -339936            0            0 330 0 0
746      -339936            0            0 331 0 0
750      -339936            0            0 332 0 0
754      -339936            0            0 333 0 0
758      -339936            0            0 334 0 0
762      -339936            0            0 335 0 0
766      -339936            0            0 336 0 0
770      -339936            0            0 337 0 0
774      -339936            0            0 338 0 0
778      -339936            0            0 339 0 0
782      -339936            0            0 340 0 0
786      -339936            0            0 341 0 0
790      -339936            0            0 342 0 0
794      -339936            0            0 343 0 0
798      -339936            0            0 344 0 0
802      -339936            0            0 345 0 0
806      -346601            0            0 346 0 0
810      -357782            0            0 347 0 0
814      -368962            0            0 348 0 0
818      -380143            0            0 349 0 0
822      -391324            0            0 350 0 0
826      -402504            0            0 351 0 0
830      -413685            0            0 352 0 0
834      -424866            0            0 353 0 0
838      -436047            0            0 354 0 0
842      -447227            0            0 355 0 0
846      -458408            0            0 356 0 0
850      -469589            0            0 357 0 0
854      -480769            0            0 358 0 0
858      -491950            0            0 359 0 0
862      -503131            0            0 360 0 0
866      -514311            0            0 361 0 0
870      -525492            0            0 362 0 0
874      -536673            0            0 363 0 0
878      -547853            0            0 364 0 0
882      -559034            0            0 365 0 0
886      -570215            0            0 366 0 0
890      -581395            0            0 367 0 0
894      -592576            0            0 368 0 0
898      -603757            0            0 369 0 0
902      -614937            0            0 370 0 0
906      -626118            0            0 371 0 0
910      -637299            0            0 372 0 0
914      -648479            0            0 373 0 0
918      -659660            0            0 374 0 0
922      -670841            0            0 375 0 0
926      -682021            0            0 376 0 0
930      -693202            0            0 377 0 0
934      -704383            0            0 378 0 0
938      -715564            0            0 379 0 0
942      -726744            0            0 380 0 0
946      -737925            0            0 381 0 0
950      -749106            0            0 382 0 0
954      -760286            0            0 383 0 0
958      -771467            0            0 384 0 0
962      -782648            0            0 385 0 0
966      -793828            0            0 386 0 0
970      -805009            0            0 387 0 0
974      -816190            0            0 388 0 0
978      -827370            0            0 389 0 0
982      -838551            0            0 390 0 0
986      -849732            0            0 391 0 0
990      -860912            0            0 392 0 0
994      -872093            0            0 393 0 0
998      -883274            0            0 394 0 0
1002      -894454            0            0 395 0 0
1006      -905635            0            0 396 0 0
1010      -916816            0            0 397 0 0
1014      -927996            0            0 398 0 0
1018      -939177            0            0 399 0 0
1022      -950358            0            0 400 0 0
1026      -961538            0            0 401 0 0
1030      -972719            0            0 402 0 0
1034      -983900            0            0 403 0 0
1038      -995081            0            0 404 0 0
1042 -1.00626e+06            0            0 405 0 0
1046 -1.01744e+06            0            0 406 0 0
1050 -1.02862e+06            0            0 407 0 0
1054  -1.0398e+06            0            0 408 0 0
1058 -1.05098e+06            0            0 409 0 0
1062 -1.06216e+06            0            0 410 0 0
1066 -1.07335e+06            0            0 411 0 0
1070 -1.08453e+06            0            0 412 0 0
1072  1.61988e+06       227273            0 413 414 0
1073 -1.12634e+06            0       227273 415 416 0

# Format of trapezoid gradients:
# id amplitude rise flat fall delay
# ..      Hz/m   us   us   us    us
[TRAP]
 1       171494  60  760  60   0
 2      -639205 220    0 220   0
 5       166730  60  760  60   0
 6      -621449 220    0 220   0
 9       161966  60  760  60   0
10      -603693 220    0 220   0
13       157203  60  760  60   0
14      -585937 220    0 220   0
17       152439  60  760  60   0
18      -568182 220    0 220   0
21       147675  60  760  60   0
22      -550426 220    0 220   0
25       142912  60  760  60   0
26      -532670 220    0 220   0
29       138148  60  760  60   0
30      -514915 220    0 220   0
33       133384  60  760  60   0
34      -497159 220    0 220   0
37       128620  60  760  60   0
38      -479403 220    0 220   0
41       123857  60  760  60   0
42      -461648 220    0 220   0
45       119093  60  760  60   0
46      -443892 220    0 220   0
49       114329  60  760  60   0
50      -426136 220    0 220   0
53       109566  60  760  60   0
54      -408381 220    0 220   0
57       104802  60  760  60   0
58      -390625 220    0 220   0
61       100038  60  760  60   0
62      -372869 220    0 220   0
65      95274.4  60  760  60   0
66      -355114 220    0 220   0
69      90510.7  60  760  60   0
70      -337358 220    0 220   0
73        85747  60  760  60   0
74      -319602 220    0 220   0
77      80983.2  60  760  60   0
78      -301847 220    0 220   0
