# Pulseq sequence file
# Created by MATLAB mr toolbox

[VERSION]
major 1
minor 5
revision 1

[DEFINITIONS]
ACS_Pairs 0 
AdcRasterTime 1e-07 
BlockDurationRaster 1e-05 
ETL_Blocks_IMG 29 
ETL_CenterSlot 96 
ETL_DummySlots_IMG 128 
ETL_Efficiency_IMG 1 
ETL_FillerPerKy_IMG 0 
ETL_Mode_IMG segmented 
ETL_RealSlots_IMG 5440 
ETL_SegLen_IMG 64 
ETL_SegmentsPerBlock_IMG 3 
ETL_SegmentsPerKy_IMG 1 
ETL_Target 192 
FOV 0.192 0.256 0.256 
FlipAngle 7 
GradientRasterTime 1e-05 
Name mprage_3d_wave_sin_cos_128x256x256_res1p5x1x1mm_ETL192_segmented_R1_2_R2_3_ACS1_0_ACS2_0_os4_amp8_cycles10_SAG_prisma 
Nx 128 
Ny 256 
Nz 256 
OrientationMapping SAG 
PE1_ACS 0 
PE1_ACSTargetLines 0 
PE1_ImgLines 64 
PE1_R 2 
PE2_ACS 0 
PE2_ACSTargetLines 0 
PE2_ImgLines 85 
PE2_R 3 
PhaseResolution 1 
RadiofrequencyRasterTime 1e-06 
ReadoutOversamplingFactor 4 
ReceiverGainHigh 1 
RequestedResolutionX_mm 1.5 
RequestedResolutionY_mm 1 
RequestedResolutionZ_mm 1 
ResolutionX_mm 1.5 
ResolutionY_mm 1 
ResolutionZ_mm 1 
SliceThickness 0.0015 
TR 2.5 
TotalDuration 72.5 
kSpaceCenterLine 128 
kSpaceCenterPartition 64 
ro_os 4 

# Format of blocks:
# NUM DUR RF  GX  GY  GZ  ADC  EXT
[BLOCKS]
    1 1044   2   0   0   0  0  0
    2 37921   0   0 769   0  0  0
    3 148   1   0   0   0  0  0
    4 596   0   1 261 771  1  5
    5 148   3   2 262 770  0  0
    6 596   0   1 267 771  2  7
    7 148   4   2 268 770  0  0
    8 596   0   1 273 771  3  8
    9 148   5   2 274 770  0  0
   10 596   0   5 261 771  4 11
   11 148   6   6 262 770  0  0
   12 596   0   5 267 771  5 14
   13 148   7   6 268 770  0  0
   14 596   0   5 273 771  6 16
   15 148   8   6 274 770  0  0
   16 596   0   9 261 771  7 17
   17 148   9  10 262 770  0  0
   18 596   0   9 267 771  8 18
   19 148   1  10 268 770  0  0
   20 596   0   9 273 771  1 19
   21 148  10  10 274 770  0  0
   22 596   0  13 261 771  9 20
   23 148  11  14 262 770  0  0
   24 596   0  13 267 771 10 21
   25 148  12  14 268 770  0  0
   26 596   0  13 273 771 11 22
   27 148   5  14 274 770  0  0
   28 596   0  17 261 771  4 23
   29 148  11  18 262 770  0  0
   30 596   0  17 267 771 10 24
   31 148  13  18 268 770  0  0
   32 596   0  17 273 771 12 25
   33 148  14  18 274 770  0  0
   34 596   0  21 261 771 13 26
   35 148   9  22 262 770  0  0
   36 596   0  21 267 771  8 27
   37 148  10  22 268 770  0  0
   38 596   0  21 273 771  9 28
   39 148  15  22 274 770  0  0
   40 596   0  25 261 771 14 29
   41 148   6  26 262 770  0  0
   42 596   0  25 267 771  5 30
   43 148  12  26 268 770  0  0
   44 596   0  25 273 771 11 31
   45 148   7  26 274 770  0  0
   46 596   0  29 261 771  6 32
   47 148   3  30 262 770  0  0
   48 596   0  29 267 771  2 33
   49 148  16  30 268 770  0  0
   50 596   0  29 273 771 15 34
   51 148  14  30 274 770  0  0
   52 596   0  33 261 771 13 35
   53 148   3  34 262 770  0  0
   54 596   0  33 267 771  2 36
   55 148  15  34 268 770  0  0
   56 596   0  33 273 771 14 37
   57 148  17  34 274 770  0  0
   58 596   0  37 261 771 16 38
   59 148   6  38 262 770  0  0
   60 596   0  37 267 771  5 39
   61 148   4  38 268 770  0  0
   62 596   0  37 273 771  3 40
   63 148  13  38 274 770  0  0
   64 596   0  41 261 771 12 41
   65 148   9  42 262 770  0  0
   66 596   0  41 267 771  8 42
   67 148  16  42 268 770  0  0
   68 596   0  41 273 771 15 43
   69 148   8  42 274 770  0  0
   70 596   0  45 261 771  7 44
   71 148  11  46 262 770  0  0
   72 596   0  45 267 771 10 45
   73 148  17  46 268 770  0  0
   74 596   0  45 273 771 16 46
   75 148  17  46 274 770  0  0
   76 596   0  49 261 771 16 47
   77 148  11  50 262 770  0  0
   78 596   0  49 267 771 10 48
   79 148   8  50 268 770  0  0
   80 596   0  49 273 771  7 49
   81 148  16  50 274 770  0  0
   82 596   0  53 261 771 15 50
   83 148   9  54 262 770  0  0
   84 596   0  53 267 771  8 51
   85 148  13  54 268 770  0  0
   86 596   0  53 273 771 12 52
   87 148   4  54 274 770  0  0
   88 596   0  57 261 771  3 53
   89 148   6  58 262 770  0  0
   90 596   0  57 267 771  5 54
   91 148  17  58 268 770  0  0
   92 596   0  57 273 771 16 55
   93 148  15  58 274 770  0  0
   94 596   0  61 261 771 14 56
   95 148   3  62 262 770  0  0
   96 596   0  61 267 771  2 57
   97 148  14  62 268 770  0  0
   98 596   0  61 273 771 13 58
   99 148  16  62 274 770  0  0
  100 596   0  65 261 771 15 59
  101 148   3  66 262 770  0  0
  102 596   0  65 267 771  2 60
  103 148   7  66 268 770  0  0
  104 596   0  65 273 771  6 61
  105 148  12  66 274 770  0  0
  106 596   0  69 261 771 11 62
  107 148   6  70 262 770  0  0
  108 596   0  69 267 771  5 63
  109 148  15  70 268 770  0  0
  110 596   0  69 273 771 14 64
  111 148  10  70 274 770  0  0
  112 596   0  73 261 771  9 65
  113 148   9  74 262 770  0  0
  114 596   0  73 267 771  8 66
  115 148  14  74 268 770  0  0
  116 596   0  73 273 771 13 67
  117 148  13  74 274 770  0  0
  118 596   0  77 261 771 12 68
  119 148  11  78 262 770  0  0
  120 596   0  77 267 771 10 69
  121 148   5  78 268 770  0  0
  122 596   0  77 273 771  4 70
  123 148  12  78 274 770  0  0
  124 596   0  81 261 771 11 71
  125 148  11  82 262 770  0  0
  126 596   0  81 267 771 10 72
  127 148  10  82 268 770  0  0
  128 596   0  81 273 771  9 73
  129 148   1  82 274 770  0  0
  130 596   0  85 261 771  1 74
  131 148   9  86 262 770  0  0
  132 596   0  85 267 771  8 75
  133 148   8  86 268 770  0  0
  134 596   0  85 273 771  7 76
  135 148   7  86 274 770  0  0
  136 596   0  89 261 771  6 77
  137 148   6  90 262 770  0  0
  138 596   0  89 267 771  5 78
  139 148   5  90 268 770  0  0
  140 596   0  89 273 771  4 79
  141 148   4  90 274 770  0  0
  142 596   0  93 261 771  3 80
  143 148   3  94 262 770  0  0
  144 596   0  93 267 771  2 81
  145 148   1  94 268 770  0  0
  146 596   0  93 273 771  1 82
  147 148   1  94 274 770  0  0
  148 596   0  97 261 771  1 83
  149 148   3  98 262 770  0  0
  150 596   0  97 267 771  2 84
  151 148   4  98 268 770  0  0
  152 596   0  97 273 771  3 85
  153 148   5  98 274 770  0  0
  154 596   0 101 261 771  4 86
  155 148   6 102 262 770  0  0
  156 596   0 101 267 771  5 87
  157 148   7 102 268 770  0  0
  158 596   0 101 273 771  6 88
  159 148   8 102 274 770  0  0
  160 596   0 105 261 771  7 89
  161 148   9 106 262 770  0  0
  162 596   0 105 267 771  8 90
  163 148   1 106 268 770  0  0
  164 596   0 105 273 771  1 91
  165 148  10 106 274 770  0  0
  166 596   0 109 261 771  9 92
  167 148  11 110 262 770  0  0
  168 596   0 109 267 771 10 93
  169 148  12 110 268 770  0  0
  170 596   0 109 273 771 11 94
  171 148   5 110 274 770  0  0
  172 596   0 113 261 771  4 95
  173 148  11 114 262 770  0  0
  174 596   0 113 267 771 10 96
  175 148  13 114 268 770  0  0
  176 596   0 113 273 771 12 97
  177 148  14 114 274 770  0  0
  178 596   0 117 261 771 13 98
  179 148   9 118 262 770  0  0
  180 596   0 117 267 771  8 99
  181 148  10 118 268 770  0  0
  182 596   0 117 273 771  9 100
  183 148  15 118 274 770  0  0
  184 596   0 121 261 771 14 101
  185 148   6 122 262 770  0  0
  186 596   0 121 267 771  5 102
  187 148  12 122 268 770  0  0
  188 596   0 121 273 771 11 103
  189 148   7 122 274 770  0  0
  190 596   0 125 261 771  6 104
  191 148   3 126 262 770  0  0
  192 596   0 125 267 771  2 105
  193 148  16 126 268 770  0  0
  194 596   0 125 273 771 15 106
  195 148  14 126 274 770  0  0
  196 596   0 129 261 771 13 107
  197 148   3 130 262 770  0  0
  198 596   0 129 267 771  2 108
  199 148  15 130 268 770  0  0
  200 596   0 129 273 771 14 109
  201 148  17 130 274 770  0  0
  202 596   0 133 261 771 16 110
  203 148   6 134 262 770  0  0
  204 596   0 133 267 771  5 111
  205 148   4 134 268 770  0  0
  206 596   0 133 273 771  3 112
  207 148  13 134 274 770  0  0
  208 596   0 137 261 771 12 113
  209 148   9 138 262 770  0  0
  210 596   0 137 267 771  8 114
  211 148  16 138 268 770  0  0
  212 596   0 137 273 771 15 115
  213 148   8 138 274 770  0  0
  214 596   0 141 261 771  7 116
  215 148  11 142 262 770  0  0
  216 596   0 141 267 771 10 117
  217 148  17 142 268 770  0  0
  218 596   0 141 273 771 16 118
  219 148  17 142 274 770  0  0
  220 596   0 145 261 771 16 119
  221 148  11 146 262 770  0  0
  222 596   0 145 267 771 10 120
  223 148   8 146 268 770  0  0
  224 596   0 145 273 771  7 121
  225 148  16 146 274 770  0  0
  226 596   0 149 261 771 15 122
  227 148   9 150 262 770  0  0
  228 596   0 149 267 771  8 123
  229 148  13 150 268 770  0  0
  230 596   0 149 273 771 12 124
  231 148   4 150 274 770  0  0
  232 596   0 153 261 771  3 125
  233 148   6 154 262 770  0  0
  234 596   0 153 267 771  5 126
  235 148  17 154 268 770  0  0
  236 596   0 153 273 771 16 127
  237 148  15 154 274 770  0  0
  238 596   0 157 261 771 14 128
  239 148   3 158 262 770  0  0
  240 596   0 157 267 771  2 129
  241 148  14 158 268 770  0  0
  242 596   0 157 273 771 13 130
  243 148  16 158 274 770  0  0
  244 596   0 161 261 771 15 131
  245 148   3 162 262 770  0  0
  246 596   0 161 267 771  2 132
  247 148   7 162 268 770  0  0
  248 596   0 161 273 771  6 133
  249 148  12 162 274 770  0  0
  250 596   0 165 261 771 11 134
  251 148   6 166 262 770  0  0
  252 596   0 165 267 771  5 135
  253 148  15 166 268 770  0  0
  254 596   0 165 273 771 14 136
  255 148  10 166 274 770  0  0
  256 596   0 169 261 771  9 137
  257 148   9 170 262 770  0  0
  258 596   0 169 267 771  8 138
  259 148  14 170 268 770  0  0
  260 596   0 169 273 771 13 139
  261 148  13 170 274 770  0  0
  262 596   0 173 261 771 12 140
  263 148  11 174 262 770  0  0
  264 596   0 173 267 771 10 141
  265 148   5 174 268 770  0  0
  266 596   0 173 273 771  4 142
  267 148  12 174 274 770  0  0
  268 596   0 177 261 771 11 143
  269 148  11 178 262 770  0  0
  270 596   0 177 267 771 10 144
  271 148  10 178 268 770  0  0
  272 596   0 177 273 771  9 145
  273 148   1 178 274 770  0  0
  274 596   0 181 261 771  1 146
[RF]
1      194.444 645 646 647 50 1280 0 0 0 0 e
2      563.681 648 649 650 5125 100 0 0 0 0 i
3      194.444 645 646 647 50 1280 0 0 0 0.872665 e
4      194.444 645 646 647 50 1280 0 0 0 2.61799 e
5      194.444 645 646 647 50 1280 0 0 0 5.23599 e
6      194.444 645 646 647 50 1280 0 0 0 2.44346 e
7      194.444 645 646 647 50 1280 0 0 0 0.523599 e
8      194.444 645 646 647 50 1280 0 0 0 5.75959 e
9      194.444 645 646 647 50 1280 0 0 0 5.58505 e
10      194.444 645 646 647 50 1280 0 0 0 1.5708 e
11      194.444 645 646 647 50 1280 0 0 0 4.01426 e
12      194.444 645 646 647 50 1280 0 0 0 1.0472 e
13      194.444 645 646 647 50 1280 0 0 0 3.66519 e
14      194.444 645 646 647 50 1280 0 0 0 4.18879 e
15      194.444 645 646 647 50 1280 0 0 0 4.71239 e
16      194.444 645 646 647 50 1280 0 0 0 2.0944 e
17      194.444 645 646 647 50 1280 0 0 0 3.14159 e

# Format of arbitrary gradients:
#   time_shape_id of 0 means default timing (stepping with grad_raster starting at 1/2 of grad_raster)
# id amplitude first last amp_shape_id time_shape_id delay
# ..      Hz/m  Hz/m Hz/m        ..         ..          us
[GRADIENTS]
1       636968            0       340608 1 0 0
2  1.06707e+06       340608            0 2 3 0
3       624420            0       340608 4 0 0
4   1.0674e+06       340608            0 5 6 0
5       611872            0       340608 7 0 0
6  1.06775e+06       340608            0 8 9 0
7       599323            0       340608 10 0 0
8   1.0681e+06       340608            0 11 12 0
9       586775            0       340608 13 0 0
10  1.03543e+06       340608            0 14 15 0
11       574227            0       340608 16 0 0
12  1.03534e+06       340608            0 17 18 0
13       561678            0       340608 19 0 0
14  1.03526e+06       340608            0 20 21 0
15       549130            0       340608 22 0 0
16  1.03517e+06       340608            0 23 24 0
17       536582            0       340608 25 0 0
18  1.00205e+06       340608            0 26 27 0
19       524033            0       340608 28 0 0
20   1.0015e+06       340608            0 29 30 0
21       511485            0       340608 31 0 0
22  1.00094e+06       340608            0 32 33 0
23       498937            0       340608 34 0 0
24  1.00035e+06       340608            0 35 36 0
25       486388            0       340608 37 0 0
26       966796       340608            0 38 39 0
27       473840            0       340608 40 0 0
28       965726       340608            0 41 42 0
29       461292            0       340608 43 0 0
30       964626       340608            0 44 45 0
31       448743            0       340608 46 0 0
32       963493       340608            0 47 48 0
33       436195            0       340608 49 0 0
34       929496       340608            0 50 51 0
35       423647            0       340608 52 0 0
36       927847       340608            0 53 54 0
37       411098            0       340608 55 0 0
38       940180       340608            0 56 57 0
39       398550            0       340608 58 0 0
40       905517       340608            0 59 60 0
41       386002            0       340608 61 0 0
42       903454       340608            0 62 63 0
43       373453            0       340608 64 0 0
44       901328       340608            0 65 66 0
45       360905            0       340608 67 0 0
46       899135       340608            0 68 69 0
47       348357            0       340608 70 0 0
48       864036       340608            0 71 72 0
49       340608            0       340608 73 0 0
50       861261       340608            0 74 75 0
51       340608            0       340608 76 0 0
52       872242       340608            0 77 78 0
53       340608            0       340608 79 0 0
54       836456       340608            0 80 81 0
55       340608            0       340608 82 0 0
56       833146       340608            0 83 84 0
57       340608            0       340608 85 0 0
58       829728       340608            0 86 87 0
59       340608            0       340608 88 0 0
60       826196       340608            0 89 90 0
61       340608            0       340608 91 0 0
62       803158       340608            0 92 93 0
63       340608            0       340608 94 0 0
64       799115       340608            0 95 96 0
65       340608            0       340608 97 0 0
66       794933       340608            0 98 99 0
67       340608            0       340608 100 0 0
68       771101       340608            0 101 102 0
69       340608            0       340608 103 0 0
70       766354       340608            0 104 105 0
71       340608            0       340608 106 0 0
72       761438       340608            0 107 108 0
73       340608            0       340608 109 0 0
74       736754       340608            0 110 111 0
75       340608            0       340608 112 0 0
76       731211       340608            0 113 114 0
77       340608            0       340608 115 0 0
78       725461       340608            0 116 117 0
79       340608            0       340608 118 0 0
80       699864       340608            0 119 120 0
81       340608            0       340608 121 0 0
82       693415       340608            0 122 123 0
83       340608            0       340608 124 0 0
84       667334       340608            0 125 126 0
85       340608            0       340608 127 0 0
86       660135       340608            0 128 129 0
87       340608            0       340608 130 0 0
88       665707       340608            0 131 132 0
89       340608            0       340608 133 0 0
90       625551       340608            0 134 135 0
91       340608            0       340608 136 0 0
92       629825       340608            0 137 138 0
93       340608            0       340608 139 0 0
94       601615       340608            0 140 141 0
95       340608            0       340608 142 0 0
96       592448       340608            0 143 144 0
97       340608            0       340608 145 0 0
98       595561       340608            0 146 147 0
99       340608            0       340608 148 0 0
100       565512       340608            0 149 150 0
101       340608            0       340608 151 0 0
102       567543       340608            0 152 153 0
103      -340608            0       340608 154 0 0
104       524213       340608            0 155 156 0
105      -340608            0       340608 157 0 0
106       524371       340608            0 158 159 0
107      -340608            0       340608 160 0 0
108       492225       340608            0 161 162 0
109      -340608            0       340608 163 0 0
110       490829       340608            0 164 165 0
111      -340608            0       340608 166 0 0
112       468543       340608            0 167 168 0
113      -340608            0       340608 169 0 0
114       465791       340608            0 170 171 0
115      -340608            0       340608 172 0 0
116       429415       340608            0 173 174 0
117      -340608            0       340608 175 0 0
118       424336       340608            0 176 177 0
119      -340608            0       340608 178 0 0
120       396967       340608            0 179 180 0
121      -340608            0       340608 181 0 0
122       357473       340608            0 182 183 0
123      -340608            0       340608 184 0 0
124       358434       340608            0 185 186 0
125      -340608            0       340608 187 0 0
126       340608       340608            0 188 189 0
127      -340608            0       340608 190 0 0
128       340608       340608            0 191 192 0
129      -340608            0       340608 193 0 0
130       340608       340608            0 194 195 0
131      -340608            0       340608 196 0 0
132       340608       340608            0 197 198 0
133      -340608            0       340608 199 0 0
134       340608       340608            0 200 201 0
135      -340608            0       340608 202 0 0
136       340608       340608            0 203 204 0
137      -340608            0       340608 205 0 0
138       340608       340608            0 206 207 0
139      -340608            0       340608 208 0 0
140       340608       340608            0 209 210 0
141      -340608            0       340608 211 0 0
142       340608       340608            0 212 213 0
143      -340608            0       340608 214 0 0
144       362694       340608            0 215 216 0
145      -340608            0       340608 217 0 0
146       403749       340608            0 218 219 0
147      -340608            0       340608 220 0 0
148       361131       340608            0 221 222 0
149      -340608            0       340608 223 0 0
150       398938       340608            0 224 225 0
151      -340608            0       340608 226 0 0
152       432766       340608            0 227 228 0
153      -340608            0       340608 229 0 0
154       436583       340608            0 230 231 0
155      -340608            0       340608 232 0 0
156       468450       340608            0 233 234 0
157      -345955            0       340608 235 0 0
158       500316       340608            0 236 237 0
159      -358504            0       340608 238 0 0
160       502026       340608            0 239 240 0
161      -371052            0       340608 241 0 0
162       503472       340608            0 242 243 0
163      -383600            0       340608 244 0 0
164       538029       340608            0 245 246 0
165      -396149            0       340608 247 0 0
166       536756       340608            0 248 249 0
167      -408697            0       340608 250 0 0
168       535657       340608            0 251 252 0
169      -421245            0       340608 253 0 0
170       604155       340608            0 254 255 0
171      -433794            0       340608 256 0 0
172       629193       340608            0 257 258 0
173      -446342            0       340608 259 0 0
174       631671       340608            0 260 261 0
175      -458890            0       340608 262 0 0
176       633984       340608            0 263 264 0
177      -471439            0       340608 265 0 0
178       636148       340608            0 266 267 0
179      -483987            0       340608 268 0 0
180       670108       340608            0 269 270 0
181      -496535            0       340608 271 0 0
182       671046       340608            0 272 273 0
183      -509084            0       340608 274 0 0
184       671929       340608            0 275 276 0
185      -521632            0       340608 277 0 0
186       672761       340608            0 278 279 0
187      -534180            0       340608 280 0 0
188       733203       340608            0 281 282 0
189      -546729            0       340608 283 0 0
190       732285       340608            0 284 285 0
191      -559277            0       340608 286 0 0
192       731417       340608            0 287 288 0
193      -571825            0       340608 289 0 0
194       769814       340608            0 290 291 0
195      -584374            0       340608 292 0 0
196       767956       340608            0 293 294 0
197      -596922            0       340608 295 0 0
198       766195       340608            0 296 297 0
199      -609470            0       340608 298 0 0
200       802571       340608            0 299 300 0
201      -622019            0       340608 301 0 0
202       799968       340608            0 302 303 0
203      -634567            0       340608 304 0 0
204       797495       340608            0 305 306 0
205      -647115            0       340608 307 0 0
206       832052       340608            0 308 309 0
207      -659664            0       340608 310 0 0
208       809122       340608            0 311 312 0
209      -672212            0       340608 313 0 0
210       842034       340608            0 314 315 0
211      -684760            0       340608 316 0 0
212       838755       340608            0 317 318 0
213      -697309            0       340608 319 0 0
214       835626       340608            0 320 321 0
215      -709857            0       340608 322 0 0
216       867041       340608            0 323 324 0
217      -722405            0       340608 325 0 0
218       875233       340608            0 326 327 0
219      -734954            0       340608 328 0 0
220       906649       340608            0 329 330 0
221      -747502            0       340608 331 0 0
222       902080       340608            0 332 333 0
223      -760050            0       340608 334 0 0
224       897710       340608            0 335 336 0
225      -772599            0       340608 337 0 0
226       908020       340608            0 338 339 0
227      -785147            0       340608 340 0 0
228       903708       340608            0 341 342 0
229      -797695            0       340608 343 0 0
230       932505       340608            0 344 345 0
231      -810244            0       340608 346 0 0
232       940015       340608            0 347 348 0
233      -822792            0       340608 349 0 0
234       968812       340608            0 350 351 0
235      -835340            0       340608 352 0 0
236       944081       340608            0 353 354 0
237      -847889            0       340608 355 0 0
238       971726       340608            0 356 357 0
239      -860437            0       340608 358 0 0
240       966419       340608            0 359 360 0
241      -872985            0       340608 361 0 0
242  1.00658e+06       340608            0 362 363 0
243      -885534            0       340608 364 0 0
244  1.00059e+06       340608            0 365 366 0
245      -898082            0       340608 367 0 0
246  1.00793e+06       340608            0 368 369 0
247      -910630            0       340608 370 0 0
248  1.00214e+06       340608            0 371 372 0
249      -923179            0       340608 373 0 0
250  1.04144e+06       340608            0 374 375 0
251      -935727            0       340608 376 0 0
252  1.03502e+06       340608            0 377 378 0
253      -948275            0       340608 379 0 0
254  1.04145e+06       340608            0 380 381 0
255      -960824            0       340608 382 0 0
256  1.03526e+06       340608            0 383 384 0
257  1.08696e+06            0            0 385 0 0
259  1.07846e+06            0            0 386 0 0
261  1.06997e+06            0            0 387 0 0
263  1.06148e+06            0            0 388 0 0
265  1.05299e+06            0            0 389 0 0
267   1.0445e+06            0            0 390 0 0
269  1.03601e+06            0            0 391 0 0
271  1.02751e+06            0            0 392 0 0
273  1.01902e+06            0            0 393 0 0
275  1.01053e+06            0            0 394 0 0
277  1.00204e+06            0            0 395 0 0
279       993546            0            0 396 0 0
281       985054            0            0 397 0 0
283       976562            0            0 398 0 0
285       968071            0            0 399 0 0
287       959579            0            0 400 0 0
289       951087            0            0 401 0 0
291       942595            0            0 402 0 0
293       934103            0            0 403 0 0
295       925611            0            0 404 0 0
297       917120            0            0 405 0 0
299       908628            0            0 406 0 0
301       900136            0            0 407 0 0
303       891644            0            0 408 0 0
305       883152            0            0 409 0 0
307       874660            0            0 410 0 0
309       866168            0            0 411 0 0
311       857677            0            0 412 0 0
313       849185            0            0 413 0 0
315       840693            0            0 414 0 0
317       832201            0            0 415 0 0
319       823709            0            0 416 0 0
321       815217            0            0 417 0 0
323       806726            0            0 418 0 0
325       798234            0            0 419 0 0
327       789742            0            0 420 0 0
329       781250            0            0 421 0 0
331       772758            0            0 422 0 0
333       764266            0            0 423 0 0
335       755774            0            0 424 0 0
337       747283            0            0 425 0 0
339       738791            0            0 426 0 0
341       730299            0            0 427 0 0
343       721807            0            0 428 0 0
345       713315            0            0 429 0 0
347       704823            0            0 430 0 0
349       696332            0            0 431 0 0
351       687840            0            0 432 0 0
353       679348            0            0 433 0 0
355       670856            0            0 434 0 0
357       662364            0            0 435 0 0
359       653872            0            0 436 0 0
361       645380            0            0 437 0 0
363       636889            0            0 438 0 0
365       628397            0            0 439 0 0
367       619905            0            0 440 0 0
369       611413            0            0 441 0 0
371       602921            0            0 442 0 0
373       594429            0            0 443 0 0
375       585938            0            0 444 0 0
377       577446            0            0 445 0 0
379       568954            0            0 446 0 0
381       560462            0            0 447 0 0
383       551970            0            0 448 0 0
385       543478            0            0 449 0 0
387       534986            0            0 450 0 0
389       526495            0            0 451 0 0
391       518003            0            0 452 0 0
393       509511            0            0 453 0 0
395       501019            0            0 454 0 0
397       492527            0            0 455 0 0
399       484035            0            0 456 0 0
401       475543            0            0 457 0 0
403       467052            0            0 458 0 0
405       458560            0            0 459 0 0
407       450068            0            0 460 0 0
409       441576            0            0 461 0 0
411       433084            0            0 462 0 0
413       424592            0            0 463 0 0
415       416101            0            0 464 0 0
417       407609            0            0 465 0 0
419       399117            0            0 466 0 0
421       390625            0            0 467 0 0
423       382133            0            0 468 0 0
425       373641            0            0 469 0 0
427       365149            0            0 470 0 0
429       356658            0            0 471 0 0
431       348166            0            0 472 0 0
433       340608            0            0 473 0 0
435       340608            0            0 474 0 0
437       340608            0            0 475 0 0
439       340608            0            0 476 0 0
441       340608            0            0 477 0 0
443       340608            0            0 478 0 0
445       340608            0            0 479 0 0
447       340608            0            0 480 0 0
449       340608            0            0 481 0 0
451       340608            0            0 482 0 0
453       340608            0            0 483 0 0
455       340608            0            0 484 0 0
457       340608            0            0 485 0 0
459       340608            0            0 486 0 0
461       340608            0            0 487 0 0
463       340608            0            0 488 0 0
465       340608            0            0 489 0 0
467       340608            0            0 490 0 0
469       340608            0            0 491 0 0
471       340608            0            0 492 0 0
473       340608            0            0 493 0 0
475       340608            0            0 494 0 0
477       340608            0            0 495 0 0
479       340608            0            0 496 0 0
481       340608            0            0 497 0 0
