# Pulseq sequence file
# Created by MATLAB mr toolbox

[VERSION]
major 1
minor 5
revision 1

[DEFINITIONS]
AdcRasterTime 1e-07 
Averages 1 
BlockDurationRaster 1e-05 
CalibrationACSSetID 4 
CalibrationAllSetsInRefscan 1 
CalibrationNSets 5 
CalibrationNacs 32 
CalibrationNcalib1 72 
CalibrationNcalib2 1 
CalibrationRefscanNLin 72 
CalibrationRefscanNPar 72 
CalibrationSlabRephaserSeparate 1 
CalibrationTE 0.0042425 
CalibrationTR 0.00871 
EncodedSlabThickness 0.18 
FOV 0.22 0.22 0.18 
FlipAngle 15 
GradientRasterTime 1e-05 
KspaceOrdering negative_to_positive 
Name gre_3d_wave_FC_FOV220x220x180_res0p88x0p88x2p5_E1_Ry3_Rz1_os4_amp8_cyc10_TRA_prisma 
Nechoes 1 
Nx 250 
Nx_os 1000 
Ny 250 
Ny_meas 83 
Nz 72 
Nz_meas 72 
OrientationMapping TRA 
PartitionResolution 0.352 
PhaseResolution 1 
RadiofrequencyRasterTime 1e-06 
ReadoutDuration 0.005 
ReadoutOversamplingFactor 4 
ReadoutPolarity monopolar 
ReceiverGainHigh 1 
Ry 3 
Rz 1 
SliceOversampling 0.125 
SliceThickness 0.16 
TE 0.02 
TR 0.03 
TargetFOV 0.22 0.22 0.16 
TotalDuration 202.75602 
UseFlowComp 1 
UseFullInitialFC 1 
UseFullInterEchoFC 0 
WaveAmplitude_mTm 8 
WaveCosChannel z 
WaveCycles 10 
WaveSinChannel y 
WaveSlew_Tms 200 
kSpaceCenterLine 125 
kSpaceCenterPartition 36 

# Format of blocks:
# NUM DUR RF  GX  GY  GZ  ADC  EXT
[BLOCKS]
    1 120   1   0   0 965  0  0
    2 1367   0   0   0 503  0  0
    3 312   0 640 766 927  0  0
    4 523   0 963   2   1  0  0
    5 678   0 964 254 572  0  0
    6 120   2   0   0 965  0  0
    7 1367   0   0   0 503  0  0
    8 312   0 640 766 927  0  0
    9 523   0 963   2   1  0  0
   10 678   0 964 254 572  0  0
   11 120   3   0   0 965  0  0
   12 1367   0   0   0 503  0  0
   13 312   0 640 766 927  0  0
   14 523   0 963   2   1  0  0
   15 678   0 964 254 572  0  0
   16 120   4   0   0 965  0  0
   17 1367   0   0   0 503  0  0
   18 312   0 640 766 927  0  0
   19 523   0 963   2   1  0  0
   20 678   0 964 254 572  0  0
   21 120   5   0   0 965  0  0
   22 1367   0   0   0 503  0  0
   23 312   0 640 766 927  0  0
   24 523   0 963   2   1  0  0
   25 678   0 964 254 572  0  0
   26 120   6   0   0 965  0  0
   27 1367   0   0   0 503  0  0
   28 312   0 640 766 927  0  0
   29 523   0 963   2   1  0  0
   30 678   0 964 254 572  0  0
   31 120   7   0   0 965  0  0
   32 1367   0   0   0 503  0  0
   33 312   0 640 766 927  0  0
   34 523   0 963   2   1  0  0
   35 678   0 964 254 572  0  0
   36 120   8   0   0 965  0  0
   37 1367   0   0   0 503  0  0
   38 312   0 640 766 927  0  0
   39 523   0 963   2   1  0  0
   40 678   0 964 254 572  0  0
   41 120   1   0   0 965  0  0
   42 1367   0   0   0 503  0  0
   43 312   0 640 766 927  0  0
   44 523   0 963   2   1  0  0
   45 678   0 964 254 572  0  0
   46 120   9   0   0 965  0  0
   47 1367   0   0   0 503  0  0
   48 312   0 640 766 927  0  0
   49 523   0 963   2   1  0  0
   50 678   0 964 254 572  0  0
   51 120  10   0   0 965  0  0
   52 1367   0   0   0 503  0  0
   53 312   0 640 766 927  0  0
   54 523   0 963   2   1  0  0
   55 678   0 964 254 572  0  0
   56 120  11   0   0 965  0  0
   57 1367   0   0   0 503  0  0
   58 312   0 640 766 927  0  0
   59 523   0 963   2   1  0  0
   60 678   0 964 254 572  0  0
   61 120   4   0   0 965  0  0
   62 1367   0   0   0 503  0  0
   63 312   0 640 766 927  0  0
   64 523   0 963   2   1  0  0
   65 678   0 964 254 572  0  0
   66 120  10   0   0 965  0  0
   67 1367   0   0   0 503  0  0
   68 312   0 640 766 927  0  0
   69 523   0 963   2   1  0  0
   70 678   0 964 254 572  0  0
   71 120  12   0   0 965  0  0
   72 1367   0   0   0 503  0  0
   73 312   0 640 766 927  0  0
   74 523   0 963   2   1  0  0
   75 678   0 964 254 572  0  0
   76 120  13   0   0 965  0  0
   77 1367   0   0   0 503  0  0
   78 312   0 640 766 927  0  0
   79 523   0 963   2   1  0  0
   80 678   0 964 254 572  0  0
   81 120   8   0   0 965  0  0
   82 1367   0   0   0 503  0  0
   83 312   0 640 766 927  0  0
   84 523   0 963   2   1  0  0
   85 678   0 964 254 572  0  0
   86 120   9   0   0 965  0  0
   87 1367   0   0   0 503  0  0
   88 312   0 640 766 927  0  0
   89 523   0 963   2   1  0  0
   90 678   0 964 254 572  0  0
   91 120  14   0   0 965  0  0
   92 1367   0   0   0 503  0  0
   93 312   0 640 766 927  0  0
   94 523   0 963   2   1  0  0
   95 678   0 964 254 572  0  0
   96 120   5   0   0 965  0  0
   97 1367   0   0   0 503  0  0
   98 312   0 640 766 927  0  0
   99 523   0 963   2   1  0  0
  100 678   0 964 254 572  0  0
  101 120  11   0   0 965  0  0
  102 1367   0   0   0 503  0  0
  103 312   0 640 766 927  0  0
  104 523   0 963   2   1  0  0
  105 678   0 964 254 572  0  0
  106 120   6   0   0 965  0  0
  107 1367   0   0   0 503  0  0
  108 312   0 640 766 927  0  0
  109 523   0 963   2   1  0  0
  110 678   0 964 254 572  0  0
  111 120   2   0   0 965  0  0
  112 1367   0   0   0 503  0  0
  113 312   0 640 766 927  0  0
  114 523   0 963   2   1  0  0
  115 678   0 964 254 572  0  0
  116 120  15   0   0 965  0  0
  117 1367   0   0   0 503  0  0
  118 312   0 640 766 927  0  0
  119 523   0 963   2   1  0  0
  120 678   0 964 254 572  0  0
  121 120  13   0   0 965  0  0
  122 1367   0   0   0 503  0  0
  123 312   0 640 766 927  0  0
  124 523   0 963   2   1  0  0
  125 678   0 964 254 572  0  0
  126 120   2   0   0 965  0  0
  127 1367   0   0   0 503  0  0
  128 312   0 640 766 927  0  0
  129 523   0 963   2   1  0  0
  130 678   0 964 254 572  0  0
  131 120  14   0   0 965  0  0
  132 1367   0   0   0 503  0  0
  133 312   0 640 766 927  0  0
  134 523   0 963   2   1  0  0
  135 678   0 964 254 572  0  0
  136 120  16   0   0 965  0  0
  137 1367   0   0   0 503  0  0
  138 312   0 640 766 927  0  0
  139 523   0 963   2   1  0  0
  140 678   0 964 254 572  0  0
  141 120   5   0   0 965  0  0
  142 1367   0   0   0 503  0  0
  143 312   0 640 766 927  0  0
  144 523   0 963   2   1  0  0
  145 678   0 964 254 572  0  0
  146 120   3   0   0 965  0  0
  147 1367   0   0   0 503  0  0
  148 312   0 640 766 927  0  0
  149 523   0 963   2   1  0  0
  150 678   0 964 254 572  0  0
  151 120  12   0   0 965  0  0
  152 1367   0   0   0 503  0  0
  153 312   0 640 766 927  0  0
  154 523   0 963   2   1  0  0
  155 678   0 964 254 572  0  0
  156 120   8   0   0 965  0  0
  157 1367   0   0   0 503  0  0
  158 312   0 640 766 927  0  0
  159 523   0 963   2   1  0  0
  160 678   0 964 254 572  0  0
  161 120  15   0   0 965  0  0
  162 1367   0   0   0 503  0  0
  163 312   0 640 766 927  0  0
  164 523   0 963   2   1  0  0
  165 678   0 964 254 572  0  0
  166 120   7   0   0 965  0  0
  167 1367   0   0   0 503  0  0
  168 312   0 640 766 927  0  0
  169 523   0 963   2   1  0  0
  170 678   0 964 254 572  0  0
  171 120  10   0   0 965  0  0
  172 1367   0   0   0 503  0  0
  173 312   0 640 766 927  0  0
  174 523   0 963   2   1  0  0
  175 678   0 964 254 572  0  0
  176 120  16   0   0 965  0  0
  177 1367   0   0   0 503  0  0
  178 312   0 640 766 927  0  0
  179 523   0 963   2   1  0  0
  180 678   0 964 254 572  0  0
  181 120  16   0   0 965  0  0
  182 1367   0   0   0 503  0  0
  183 312   0 640 766 927  0  0
  184 523   0 963   2   1  0  0
  185 678   0 964 254 572  0  0
  186 120  10   0   0 965  0  0
  187 1367   0   0   0 503  0  0
  188 312   0 640 766 927  0  0
  189 523   0 963   2   1  0  0
  190 678   0 964 254 572  0  0
  191 120   7   0   0 965  0  0
  192 1367   0   0   0 503  0  0
  193 312   0 640 766 927  0  0
  194 523   0 963   2   1  0  0
  195 678   0 964 254 572  0  0
  196 120  15   0   0 965  0  0
  197 1367   0   0   0 503  0  0
  198 312   0 640 766 927  0  0
  199 523   0 963   2   1  0  0
  200 678   0 964 254 572  0  0
  201 120   8   0   0 965  0  0
  202 1367   0   0   0 503  0  0
  203 312   0 640 766 927  0  0
  204 523   0 963   2   1  0  0
  205 678   0 964 254 572  0  0
  206 120  12   0   0 965  0  0
  207 1367   0   0   0 503  0  0
  208 312   0 640 766 927  0  0
  209 523   0 963   2   1  0  0
  210 678   0 964 254 572  0  0
  211 120   3   0   0 965  0  0
  212 1367   0   0   0 503  0  0
  213 312   0 640 766 927  0  0
  214 523   0 963   2   1  0  0
  215 678   0 964 254 572  0  0
  216 120   5   0   0 965  0  0
  217 1367   0   0   0 503  0  0
  218 312   0 640 766 927  0  0
  219 523   0 963   2   1  0  0
  220 678   0 964 254 572  0  0
  221 120  16   0   0 965  0  0
  222 1367   0   0   0 503  0  0
  223 312   0 640 766 927  0  0
  224 523   0 963   2   1  0  0
  225 678   0 964 254 572  0  0
  226 120  14   0   0 965  0  0
  227 1367   0   0   0 503  0  0
  228 312   0 640 766 927  0  0
  229 523   0 963   2   1  0  0
  230 678   0 964 254 572  0  0
  231 120   2   0   0 965  0  0
  232 1367   0   0   0 503  0  0
  233 312   0 640 766 927  0  0
  234 523   0 963   2   1  0  0
  235 678   0 964 254 572  0  0
  236 120  13   0   0 965  0  0
  237 1367   0   0   0 503  0  0
  238 312   0 640 766 927  0  0
  239 523   0 963   2   1  0  0
  240 678   0 964 254 572  0  0
  241 120  15   0   0 965  0  0
  242 1367   0   0   0 503  0  0
  243 312   0 640 766 927  0  0
  244 523   0 963   2   1  0  0
  245 678   0 964 254 572  0  0
  246 120   2   0   0 965  0  0
  247 1367   0   0   0 503  0  0
  248 312   0 640 766 927  0  0
  249 523   0 963   2   1  0  0
  250 678   0 964 254 572  0  0
  251 120   6   0   0 965  0  0
  252 1367   0   0   0 503  0  0
  253 312   0 640 766 927  0  0
  254 523   0 963   2   1  0  0
  255 678   0 964 254 572  0  0
  256 120  11   0   0 965  0  0
  257 1367   0   0   0 503  0  0
  258 312   0 640 766 927  0  0
  259 523   0 963   2   1  0  0
  260 678   0 964 254 572  0  0
  261 120   5   0   0 965  0  0
  262 1367   0   0   0 503  0  0
  263 312   0 640 766 927  0  0
  264 523   0 963   2   1  0  0
  265 678   0 964 254 572  0  0
  266 120  14   0   0 965  0  0
  267 1367   0   0   0 503  0  0
  268 312   0 640 766 927  0  0
  269 523   0 963   2   1  0  0
[RF]
1      835.829 330 331 0 500 100 0 0 0 0 e
2      835.829 330 331 0 500 100 0 0 0 0.872665 e
3      835.829 330 331 0 500 100 0 0 0 2.61799 e
4      835.829 330 331 0 500 100 0 0 0 5.23599 e
5      835.829 330 331 0 500 100 0 0 0 2.44346 e
6      835.829 330 331 0 500 100 0 0 0 0.523599 e
7      835.829 330 331 0 500 100 0 0 0 5.75959 e
8      835.829 330 331 0 500 100 0 0 0 5.58505 e
9      835.829 330 331 0 500 100 0 0 0 1.5708 e
10      835.829 330 331 0 500 100 0 0 0 4.01426 e
11      835.829 330 331 0 500 100 0 0 0 1.0472 e
12      835.829 330 331 0 500 100 0 0 0 3.66519 e
13      835.829 330 331 0 500 100 0 0 0 4.18879 e
14      835.829 330 331 0 500 100 0 0 0 4.71239 e
15      835.829 330 331 0 500 100 0 0 0 2.0944 e
16      835.829 330 331 0 500 100 0 0 0 3.14159 e

# Format of arbitrary gradients:
#   time_shape_id of 0 means default timing (stepping with grad_raster starting at 1/2 of grad_raster)
# id amplitude first last amp_shape_id time_shape_id delay
# ..      Hz/m  Hz/m Hz/m        ..         ..          us
[GRADIENTS]
1       340608            0            0 1 0 0
2       339936            0            0 2 0 0
503      -636104            0            0 3 4 0
640  1.44875e+06            0            0 5 6 0
641  1.90947e+06            0            0 7 6 0
642   1.8938e+06            0            0 8 6 0
643  1.87813e+06            0            0 9 6 0
644  1.86246e+06            0            0 10 6 0
645  1.84679e+06            0            0 11 6 0
646  1.83112e+06            0            0 12 6 0
647  1.81545e+06            0            0 13 6 0
648  1.79978e+06            0            0 14 6 0
649  1.78411e+06            0            0 15 6 0
650  1.76844e+06            0            0 16 6 0
651  1.75277e+06            0            0 17 6 0
652   1.7371e+06            0            0 18 6 0
653  1.72143e+06            0            0 19 6 0
654  1.70576e+06            0            0 20 6 0
655  1.69009e+06            0            0 21 6 0
656  1.67442e+06            0            0 22 6 0
657  1.65875e+06            0            0 23 6 0
658  1.64308e+06            0            0 24 6 0
659  1.62741e+06            0            0 25 6 0
660  1.61174e+06            0            0 26 6 0
661  1.59607e+06            0            0 27 6 0
662   1.5804e+06            0            0 28 6 0
663  1.56473e+06            0            0 29 6 0
664  1.54906e+06            0            0 30 6 0
665  1.53339e+06            0            0 31 6 0
666  1.51772e+06            0            0 32 6 0
667  1.50205e+06            0            0 33 6 0
668  1.48638e+06            0            0 34 6 0
669  1.47071e+06            0            0 35 6 0
670  1.45503e+06            0            0 36 6 0
671  1.43936e+06            0            0 37 6 0
672  1.42369e+06            0            0 38 6 0
673  1.40802e+06            0            0 39 6 0
674  1.39235e+06            0            0 40 6 0
675  1.37668e+06            0            0 41 6 0
676  1.36101e+06            0            0 42 6 0
677  1.34534e+06            0            0 43 6 0
678  1.32967e+06            0            0 44 6 0
679    1.314e+06            0            0 45 6 0
680  1.29833e+06            0            0 46 6 0
681  1.28266e+06            0            0 47 6 0
682  1.26699e+06            0            0 48 6 0
683  1.25132e+06            0            0 49 6 0
684  1.23565e+06            0            0 50 6 0
685  1.21998e+06            0            0 51 6 0
686  1.20431e+06            0            0 52 6 0
687  1.18864e+06            0            0 53 6 0
688  1.17297e+06            0            0 54 6 0
689   1.1573e+06            0            0 55 6 0
690  1.14163e+06            0            0 56 6 0
691  1.12596e+06            0            0 57 6 0
692  1.11029e+06            0            0 58 6 0
693  1.09462e+06            0            0 59 6 0
694  1.07895e+06            0            0 60 6 0
695  1.06328e+06            0            0 61 6 0
696  1.04761e+06            0            0 62 6 0
697  1.03194e+06            0            0 63 6 0
698  1.01627e+06            0            0 64 6 0
699   1.0006e+06            0            0 65 6 0
700       984932            0            0 66 6 0
701       969262            0            0 67 6 0
702       953592            0            0 68 6 0
703       937921            0            0 69 6 0
704       922251            0            0 70 6 0
705       906581            0            0 71 6 0
706       890911            0            0 72 6 0
707       875241            0            0 73 6 0
708       859571            0            0 74 6 0
709       843901            0            0 75 6 0
710       828231            0            0 76 6 0
711       812561            0            0 77 6 0
712       796890            0            0 78 6 0
713       781220            0            0 79 6 0
714       765550            0            0 80 6 0
715       749880            0            0 81 6 0
716       734210            0            0 82 6 0
717       718540            0            0 83 6 0
718       702870            0            0 84 6 0
719       687200            0            0 85 6 0
720       671530            0            0 86 6 0
721       655859            0            0 87 6 0
722       640189            0            0 88 6 0
723       624519            0            0 89 6 0
724       608849            0            0 90 6 0
725       593179            0            0 91 6 0
726       577509            0            0 92 6 0
727       561839            0            0 93 6 0
728       546169            0            0 94 6 0
729       530499            0            0 95 6 0
730       514829            0            0 96 6 0
731       499158            0            0 97 6 0
732       483488            0            0 98 6 0
733       467818            0            0 99 6 0
734       452148            0            0 100 6 0
735       436478            0            0 101 6 0
736       420808            0            0 102 6 0
737       405138            0            0 103 6 0
738       389468            0            0 104 6 0
739       373798            0            0 105 6 0
740       358127            0            0 106 6 0
741       342457            0            0 107 6 0
742       326787            0            0 108 6 0
743       311117            0            0 109 6 0
744       295447            0            0 110 6 0
745       279777            0            0 111 6 0
746       264107            0            0 112 6 0
747       248437            0            0 113 6 0
748       232767            0            0 114 6 0
749       217096            0            0 115 6 0
750       201426            0            0 116 6 0
751       185756            0            0 117 6 0
752       170086            0            0 118 6 0
753       154416            0            0 119 6 0
754       138746            0            0 120 6 0
755       123076            0            0 121 6 0
756       107406            0            0 122 6 0
757      91735.6            0            0 123 6 0
758      76065.5            0            0 124 6 0
759      60395.4            0            0 125 6 0
760      44725.3            0            0 126 6 0
761      29055.2            0            0 127 6 0
762       -13484            0            0 128 129 0
763     -13462.3            0            0 130 6 0
764     -25406.7            0            0 131 6 0
765       -37351            0            0 132 6 0
766     -49295.3            0            0 133 6 0
767     -64965.4            0            0 134 6 0
768     -80635.5            0            0 135 6 0
769     -96305.6            0            0 136 6 0
770      -111976            0            0 137 6 0
771      -127646            0            0 138 6 0
772      -143316            0            0 139 6 0
773      -158986            0            0 140 6 0
774      -174656            0            0 141 6 0
775      -190326            0            0 142 6 0
776      -205996            0            0 143 6 0
777      -221666            0            0 144 6 0
778      -237337            0            0 145 6 0
779      -253007            0            0 146 6 0
780      -268677            0            0 147 6 0
781      -284347            0            0 148 6 0
782      -300017            0            0 149 6 0
783      -315687            0            0 150 6 0
784      -331357            0            0 151 6 0
785      -347027            0            0 152 6 0
786      -362697            0            0 153 6 0
787      -378368            0            0 154 6 0
788      -394038            0            0 155 6 0
789      -409708            0            0 156 6 0
790      -425378            0            0 157 6 0
791      -441048            0            0 158 6 0
792      -456718            0            0 159 6 0
793      -472388            0            0 160 6 0
794      -488058            0            0 161 6 0
795      -503728            0            0 162 6 0
796      -519399            0            0 163 6 0
797      -535069            0            0 164 6 0
798      -550739            0            0 165 6 0
799      -566409            0            0 166 6 0
800      -582079            0            0 167 6 0
801      -597749            0            0 168 6 0
802      -613419            0            0 169 6 0
803      -629089            0            0 170 6 0
804      -644759            0            0 171 6 0
805      -660429            0            0 172 6 0
806      -676100            0            0 173 6 0
807      -691770            0            0 174 6 0
808      -707440            0            0 175 6 0
809      -723110            0            0 176 6 0
810      -738780            0            0 177 6 0
811      -754450            0            0 178 6 0
812      -770120            0            0 179 6 0
813      -785790            0            0 180 6 0
814      -801460            0            0 181 6 0
815      -817131            0            0 182 6 0
816      -832801            0            0 183 6 0
817      -848471            0            0 184 6 0
818      -864141            0            0 185 6 0
819      -879811            0            0 186 6 0
820      -895481            0            0 187 6 0
821      -911151            0            0 188 6 0
822      -926821            0            0 189 6 0
823      -942491            0            0 190 6 0
824      -958162            0            0 191 6 0
825      -973832            0            0 192 6 0
826      -989502            0            0 193 6 0
827 -1.00517e+06            0            0 194 6 0
828 -1.02084e+06            0            0 195 6 0
829 -1.03651e+06            0            0 196 6 0
830 -1.05218e+06            0            0 197 6 0
831 -1.06785e+06            0            0 198 6 0
832 -1.08352e+06            0            0 199 6 0
833 -1.09919e+06            0            0 200 6 0
834 -1.11486e+06            0            0 201 6 0
835 -1.13053e+06            0            0 202 6 0
836  -1.1462e+06            0            0 203 6 0
837 -1.16187e+06            0            0 204 6 0
838 -1.17754e+06            0            0 205 6 0
839 -1.19321e+06            0            0 206 6 0
840 -1.20888e+06            0            0 207 6 0
841 -1.22455e+06            0            0 208 6 0
842 -1.24022e+06            0            0 209 6 0
843 -1.25589e+06            0            0 210 6 0
844 -1.27156e+06            0            0 211 6 0
845 -1.28723e+06            0            0 212 6 0
846  -1.3029e+06            0            0 213 6 0
847 -1.31857e+06            0            0 214 6 0
848 -1.33424e+06            0            0 215 6 0
849 -1.34991e+06            0            0 216 6 0
850 -1.36558e+06            0            0 217 6 0
851 -1.38125e+06            0            0 218 6 0
852 -1.39692e+06            0            0 219 6 0
853 -1.41259e+06            0            0 220 6 0
854 -1.42826e+06            0            0 221 6 0
855 -1.44393e+06            0            0 222 6 0
856  -1.4596e+06            0            0 223 6 0
857 -1.47528e+06            0            0 224 6 0
858 -1.49095e+06            0            0 225 6 0
859 -1.50662e+06            0            0 226 6 0
860 -1.52229e+06            0            0 227 6 0
861 -1.53796e+06            0            0 228 6 0
862 -1.55363e+06            0            0 229 6 0
863  -1.5693e+06            0            0 230 6 0
864 -1.58497e+06            0            0 231 6 0
865 -1.60064e+06            0            0 232 6 0
866 -1.61631e+06            0            0 233 6 0
867 -1.63198e+06            0            0 234 6 0
868 -1.64765e+06            0            0 235 6 0
869 -1.66332e+06            0            0 236 6 0
870 -1.67899e+06            0            0 237 6 0
871 -1.69466e+06            0            0 238 6 0
872 -1.71033e+06            0            0 239 6 0
873   -1.726e+06            0            0 240 6 0
874 -1.74167e+06            0            0 241 6 0
875 -1.75734e+06            0            0 242 6 0
876 -1.77301e+06            0            0 243 6 0
877 -1.78868e+06            0            0 244 6 0
878 -1.80435e+06            0            0 245 6 0
879 -1.82002e+06            0            0 246 6 0
880 -1.83569e+06            0            0 247 6 0
881 -1.85136e+06            0            0 248 6 0
882 -1.86703e+06            0            0 249 6 0
883  -1.8827e+06            0            0 250 6 0
884 -1.89837e+06            0            0 251 6 0
885 -1.91404e+06            0            0 252 6 0
886 -1.92971e+06            0            0 253 6 0
887 -1.94538e+06            0            0 254 6 0
888 -1.96105e+06            0            0 255 6 0
889 -1.97672e+06            0            0 256 6 0
890 -1.99239e+06            0            0 257 6 0
891       719307            0            0 258 6 0
892       700155            0            0 259 6 0
893       681002            0            0 260 6 0
894       661850            0            0 261 6 0
895       642698            0            0 262 6 0
896       623545            0            0 263 6 0
897       604393            0            0 264 6 0
898       585240            0            0 265 6 0
899       566088            0            0 266 6 0
900       546936            0            0 267 6 0
901       527783            0            0 268 6 0
902       508631            0            0 269 6 0
903       489479            0            0 270 6 0
904       470326            0            0 271 6 0
905       451174            0            0 272 6 0
906       432022            0            0 273 6 0
907       412869            0            0 274 6 0
908       393717            0            0 275 6 0
909       374565            0            0 276 6 0
910       355412            0            0 277 6 0
911       336260            0            0 278 6 0
912       317108            0            0 279 6 0
913       297955            0            0 280 6 0
914       278803            0            0 281 6 0
915       259650            0            0 282 6 0
916       240498            0            0 283 6 0
917       221346            0            0 284 6 0
918       202193            0            0 285 6 0
919       183041            0            0 286 6 0
920       163889            0            0 287 6 0
921       144736            0            0 288 6 0
922       125584            0            0 289 6 0
923       106432            0            0 290 6 0
924      87279.3            0            0 291 6 0
925      68126.9            0            0 292 6 0
926      48974.6            0            0 293 6 0
927      29822.2            0            0 294 6 0
928     -10750.1            0            0 295 129 0
929     -15428.3            0            0 296 6 0
930     -30026.9            0            0 297 6 0
931     -46787.2            0            0 298 6 0
932     -65939.5            0            0 299 6 0
933     -85091.9            0            0 300 6 0
934      -104244            0            0 301 6 0
935      -123397            0            0 302 6 0
936      -142549            0            0 303 6 0
937      -161701            0            0 304 6 0
938      -180854            0            0 305 6 0
939      -200006            0            0 306 6 0
940      -219158            0            0 307 6 0
941      -238311            0            0 308 6 0
942      -257463            0            0 309 6 0
943      -276615            0            0 310 6 0
944      -295768            0            0 311 6 0
945      -314920            0            0 312 6 0
946      -334072            0            0 313 6 0
947      -353225            0            0 314 6 0
948      -372377            0            0 315 6 0
949      -391530            0            0 316 6 0
950      -410682            0            0 317 6 0
951      -429834            0            0 318 6 0
952      -448987            0            0 319 6 0
953      -468139            0            0 320 6 0
954      -487291            0            0 321 6 0
955      -506444            0            0 322 6 0
956      -525596            0            0 323 6 0
957      -544748            0            0 324 6 0
958      -563901            0            0 325 6 0
959      -583053            0            0 326 6 0
960      -602205            0            0 327 6 0
961      -621358            0            0 328 6 0
962      -640510            0            0 329 6 0
968      -629989            0       340608 332 0 0
969       821921       340608            0 333 334 0
972      -617219            0       340608 335 0 0
973       823206       340608            0 336 337 0
976      -604450            0       340608 338 0 0
977       786913       340608            0 339 340 0
980      -591680            0       340608 341 0 0
981       787334       340608            0 342 343 0
984      -578910            0       340608 344 0 0
985       787777       340608            0 345 346 0
988      -566141            0       340608 347 0 0
989       749574       340608            0 348 349 0
992      -553371            0       340608 350 0 0
993       760353       340608            0 351 352 0
996      -540601            0       340608 353 0 0
997       760063       340608            0 354 355 0
1000      -527832            0       340608 356 0 0
1001       718585       340608            0 357 358 0
1004      -515062            0       340608 359 0 0
1005       717058       340608            0 360 361 0
1008      -502292            0       340608 362 0 0
1009       715438       340608            0 363 364 0
1012      -489523            0       340608 365 0 0
1013       713718       340608            0 366 367 0
1016      -476753            0       340608 368 0 0
1017       648098       340608            0 369 370 0
1020      -463983            0       340608 371 0 0
1021       654069       340608            0 372 373 0
1024      -451214            0       340608 374 0 0
1025       650188       340608            0 375 376 0
1028      -438444            0       340608 377 0 0
1029       646039       340608            0 378 379 0
1032      -425674            0       340608 380 0 0
1033       619470       340608            0 381 382 0
1036      -412905            0       340608 383 0 0
1037       614076       340608            0 384 385 0
1040      -400135            0       340608 386 0 0
1041       550064       340608            0 387 388 0
1044      -387365            0       340608 389 0 0
1045       549642       340608            0 390 391 0
1048      -374596            0       340608 392 0 0
1049       513362       340608            0 393 394 0
1052      -361826            0       340608 395 0 0
1053       517044       340608            0 396 397 0
1056      -349056            0       340608 398 0 0
1057       479167       340608            0 399 400 0
